Timestamp,Bin_0,Bin_1,Bin_2,Bin_3,Bin_4,Bin_5,Bin_6,Bin_7,Bin_8,Bin_9,Bin_10,Bin_11,Bin_12,Bin_13,Bin_14,Bin_15,Bin_16,Bin_17,Bin_18,Bin_19,Bin_20,Bin_21,Bin_22,Bin_23,Bin_24,Bin_25,Bin_26,Bin_27,Bin_28,Bin_29,Bin_30,Bin_31
2025-10-24 15:44:45.878,2,1,1,10,0,1,1,0,0,1,1,1,1,0,1,2,1,1,0,1,1,1,1,0,0,1,1,1,1,1,1,0
2025-10-24 15:44:46.858,1,1,1,7,0,0,1,1,1,0,1,1,1,1,1,2,1,1,1,1,0,0,1,1,1,0,1,1,0,0,1,0
2025-10-24 15:44:47.883,-33,23,6,13,14,5,11,5,5,9,6,3,2,4,1,5,9,6,1,3,1,3,5,5,4,2,3,2,5,6,2,1
2025-10-24 15:44:48.843,1,1,1,8,1,1,0,0,1,1,1,1,1,1,1,2,1,1,1,1,1,1,0,0,1,1,1,1,1,1,1,0
2025-10-24 15:44:49.865,1,1,1,7,2,1,1,1,1,1,2,1,1,0,1,2,1,1,1,0,1,1,1,1,1,1,1,1,1,0,1,0
2025-10-24 15:44:50.887,0,1,2,6,2,1,0,1,1,0,1,1,1,1,1,1,1,1,1,1,1,1,1,1,1,0,1,1,0,1,1,1
2025-10-24 15:44:51.846,1,1,1,7,2,1,1,1,1,1,1,1,1,1,1,2,1,1,1,0,1,1,1,1,1,1,1,1,1,0,1,0
2025-10-24 15:44:52.868,0,1,1,5,2,1,1,1,1,1,1,1,0,1,1,2,1,1,1,2,0,1,1,1,1,1,1,1,0,1,1,0
2025-10-24 15:44:53.890,2,0,0,8,2,0,1,1,1,0,1,1,0,1,0,1,1,1,0,0,0,0,1,1,1,0,2,1,0,1,1,1
2025-10-24 15:44:54.851,-16,16,16,6,11,6,1,2,5,6,7,5,4,2,1,3,3,3,4,4,1,2,1,2,3,4,4,3,0,1,2,3
2025-10-24 15:44:55.878,-74,5,5,43,6,5,7,1,2,13,11,9,11,5,2,5,6,7,4,10,3,1,3,4,3,10,5,3,2,2,3,7
2025-10-24 15:44:56.837,-80,1,8,45,6,2,2,2,10,17,10,2,5,3,5,5,9,3,4,5,5,2,11,3,2,7,4,6,5,2,2,5
2025-10-24 15:44:57.860,-75,3,3,42,7,5,6,2,1,12,10,9,8,7,3,2,9,8,5,12,6,3,5,7,1,14,4,3,2,3,1,7
2025-10-24 15:44:58.884,-16,0,0,1,0,0,1,1,0,0,0,1,0,0,1,1,0,0,0,1,0,0,1,1,0,0,0,1,0,0,1,1
2025-10-24 15:44:59.847,-61,6,7,45,7,5,33,12,2,9,13,6,9,7,2,10,9,2,7,9,2,7,5,2,3,3,6,2,7,6,4,4
2025-10-24 15:45:00.872,-8,3,1,5,0,0,0,0,0,1,1,1,1,1,0,0,0,1,1,2,0,0,0,0,0,1,1,1,1,1,0,0
2025-10-24 15:45:01.831,-21,1,0,0,0,1,0,0,0,1,0,0,0,1,0,0,0,1,0,0,0,1,0,0,0,1,0,0,0,1,0,0
2025-10-24 15:45:02.852,-20,1,0,0,0,1,0,0,0,1,0,0,0,1,0,0,0,1,0,0,0,1,0,0,0,1,0,0,0,1,0,0
2025-10-24 15:45:03.874,-20,0,0,1,0,1,1,1,0,0,0,1,0,1,1,1,1,1,0,1,0,1,1,1,0,0,0,1,0,1,1,1
2025-10-24 15:45:04.836,-66,3,8,28,8,2,7,6,7,12,12,2,1,6,5,5,12,5,3,3,2,2,11,5,1,2,4,5,7,8,1,4
2025-10-24 15:45:05.859,-63,4,8,34,4,5,9,3,4,14,10,7,11,7,1,2,6,5,4,8,4,0,3,5,4,12,5,3,2,1,4,7
2025-10-24 15:45:06.882,-73,2,5,27,5,6,13,1,5,14,10,6,6,1,4,6,11,7,4,1,2,4,9,6,3,2,1,4,8,4,7,2
2025-10-24 15:45:07.842,-19,1,0,0,0,0,0,0,0,0,0,0,0,0,0,2,0,1,0,0,0,0,0,0,0,0,0,0,0,0,0,1
2025-10-24 15:45:08.864,-20,0,0,1,0,0,0,1,0,0,0,1,0,0,0,1,1,0,0,1,0,0,0,1,0,0,0,1,0,0,0,0
2025-10-24 15:45:09.885,-7,1,0,1,0,1,0,1,0,1,0,1,0,1,0,1,0,1,0,1,0,1,0,1,0,1,0,1,0,1,0,1
2025-10-24 15:45:10.843,-4,0,0,0,0,0,0,0,0,0,0,0,0,0,0,1,0,0,0,0,0,0,0,0,0,0,0,0,0,0,0,1
2025-10-24 15:45:11.865,2,1,0,0,0,1,1,0,0,1,0,0,0,1,1,0,0,1,0,0,0,1,1,0,0,1,0,0,0,1,1,0
2025-10-24 15:45:12.887,2,1,0,1,1,1,1,1,1,1,0,1,1,1,1,2,1,1,0,1,1,1,1,1,1,1,0,1,1,1,1,1
2025-10-24 15:45:13.845,0,1,1,1,1,1,1,1,1,1,1,1,1,1,1,2,1,1,1,1,1,1,1,1,1,1,1,1,1,1,1,1
2025-10-24 15:45:14.867,0,0,1,1,1,0,1,1,1,0,1,1,1,0,1,1,1,0,1,1,1,0,1,1,1,0,1,1,1,0,1,0
2025-10-24 15:45:15.889,2,1,1,1,1,1,1,1,1,1,1,1,1,1,1,1,1,1,1,1,1,1,1,1,1,1,1,1,1,1,1,1
2025-10-24 15:45:16.848,-13,1,0,1,0,1,0,1,0,1,0,1,0,1,0,2,0,1,0,1,0,1,0,1,0,1,0,1,0,1,0,1
2025-10-24 15:45:17.870,0,1,1,1,1,1,1,1,1,1,1,1,1,1,1,2,1,1,1,1,1,1,1,1,1,1,1,1,1,1,1,1
2025-10-24 15:45:18.828,0,1,1,0,1,1,1,1,1,1,1,0,1,1,1,1,1,1,1,0,1,1,1,1,1,1,1,0,1,1,1,1
2025-10-24 15:45:19.850,-8,1,1,0,1,1,1,0,1,1,0,0,0,1,0,1,1,1,1,0,1,1,1,0,0,1,0,0,0,1,0,1
2025-10-24 15:45:20.872,-12,1,1,0,0,1,0,0,0,1,1,0,0,1,0,1,0,1,1,0,0,1,0,0,0,1,1,0,0,1,0,1
2025-10-24 15:45:21.830,-11,1,1,1,0,1,1,1,0,1,1,1,0,1,1,1,0,1,1,1,0,1,1,1,0,1,1,1,0,1,1,1
2025-10-24 15:45:22.851,-11,0,0,0,0,0,0,0,0,0,0,0,0,0,0,0,0,0,0,0,0,0,0,0,0,0,0,0,0,0,0,0
2025-10-24 15:45:23.873,-11,1,0,1,0,1,0,1,0,1,0,1,0,1,0,2,0,1,0,1,0,1,0,1,0,1,0,1,0,1,0,1
2025-10-24 15:45:24.831,-9,1,0,0,0,1,1,0,0,1,0,0,0,1,1,1,0,0,0,0,0,1,1,0,0,1,0,0,0,1,1,1
2025-10-24 15:45:25.852,-13,1,0,0,0,1,0,0,0,1,0,0,0,1,0,1,0,0,0,0,0,1,0,0,0,1,0,0,0,1,0,1
2025-10-24 15:45:26.874,-11,0,0,1,0,1,0,1,0,0,0,1,0,1,0,1,0,0,0,1,0,1,0,1,0,0,0,1,0,1,0,1
2025-10-24 15:45:27.832,-11,1,0,0,0,1,0,0,0,1,0,0,0,1,0,1,0,1,0,0,0,1,0,0,0,1,0,0,0,1,0,1
2025-10-24 15:45:28.857,-25,25,26,23,18,12,7,4,1,3,5,7,6,5,2,1,0,2,3,4,4,4,2,1,1,2,2,4,3,3,2,1
2025-10-24 15:45:29.882,-11,0,1,0,0,0,1,0,0,0,1,0,0,0,1,0,0,0,1,0,0,0,1,0,0,0,1,0,0,0,1,0
2025-10-24 15:45:30.840,-14,1,0,1,0,1,0,1,0,1,0,1,0,1,0,1,0,1,0,1,0,1,0,1,0,1,0,1,0,1,0,1
2025-10-24 15:45:31.861,-13,0,0,0,0,0,0,0,0,0,0,0,0,0,0,1,0,0,0,0,0,0,0,0,0,0,0,0,0,0,0,1
2025-10-24 15:45:32.883,-12,0,1,0,0,0,1,0,0,0,1,0,0,0,1,1,0,1,1,0,0,0,1,0,0,0,1,0,0,0,1,1
2025-10-24 15:45:33.841,-13,1,0,1,0,1,0,1,0,1,0,1,0,1,0,1,0,1,0,1,0,1,0,1,0,1,0,1,0,1,0,1
2025-10-24 15:45:34.863,-12,0,1,0,0,0,0,0,0,0,1,0,1,0,0,1,0,1,1,0,0,0,0,0,0,0,1,0,1,0,0,1
2025-10-24 15:45:35.884,-12,0,0,0,0,0,0,0,0,0,0,0,0,0,0,1,0,1,0,0,0,0,0,0,0,0,0,0,0,0,0,1
2025-10-24 15:45:36.842,-11,0,0,0,0,0,0,0,0,0,0,0,0,0,0,0,0,0,0,0,0,0,0,0,0,0,0,0,0,0,0,0
2025-10-24 15:45:37.863,-11,0,0,1,0,0,0,1,0,0,0,1,0,0,0,1,0,0,0,1,0,0,0,1,0,0,0,1,0,0,0,1
2025-10-24 15:45:38.884,-10,0,0,0,0,0,1,0,0,0,0,0,0,0,1,0,1,0,0,0,0,0,1,0,0,0,0,0,0,0,1,0
2025-10-24 15:45:39.842,-12,0,0,0,0,0,0,0,0,0,0,0,0,0,0,0,0,0,0,0,0,0,0,0,0,0,0,0,0,0,0,0
2025-10-24 15:45:40.863,-11,0,0,1,0,0,0,1,1,0,0,1,1,0,0,0,0,1,0,1,0,0,0,1,0,0,0,1,1,0,0,1
2025-10-24 15:45:41.884,-11,0,0,0,0,0,0,0,0,0,0,0,0,0,0,0,1,0,0,0,0,0,0,0,0,0,0,0,0,0,0,0
2025-10-24 15:45:42.842,-10,0,0,0,0,0,0,0,0,0,0,0,0,0,0,0,0,0,0,0,0,0,0,0,0,0,0,0,0,0,0,0
2025-10-24 15:45:43.863,-10,0,0,0,0,0,0,0,0,0,0,0,0,0,0,0,0,0,0,0,0,0,0,0,0,0,0,0,0,0,0,0
2025-10-24 15:45:44.883,-9,0,1,0,0,0,0,0,0,0,1,0,0,0,0,0,0,0,1,0,0,0,0,0,0,0,1,0,0,0,0,0
2025-10-24 15:45:45.842,-8,1,0,1,0,1,0,1,0,1,0,1,0,1,0,1,0,1,0,1,0,1,0,1,0,1,0,1,0,1,0,1
2025-10-24 15:45:46.863,-9,0,0,1,0,0,0,1,0,0,0,1,0,0,0,0,0,1,0,1,0,0,0,1,0,0,0,1,0,0,0,1
2025-10-24 15:45:47.885,-8,0,0,0,0,0,0,0,0,0,0,0,0,0,0,0,0,0,0,0,0,0,0,0,0,0,0,0,0,0,0,0
2025-10-24 15:45:48.842,-7,0,0,0,0,0,0,0,0,0,0,0,0,0,0,0,0,0,0,0,0,0,0,0,0,0,0,0,0,0,0,0
2025-10-24 15:45:49.863,-6,0,0,0,0,0,0,0,0,0,0,0,0,0,0,0,0,1,0,0,0,0,0,0,0,0,0,0,0,0,0,0
2025-10-24 15:45:50.884,-5,0,0,0,0,0,0,0,0,0,0,0,0,0,0,0,0,0,0,0,0,0,0,0,0,0,0,0,0,0,0,0
2025-10-24 15:45:51.841,-3,0,0,1,0,0,0,1,0,0,0,1,0,0,0,1,0,0,0,1,0,0,0,1,0,0,0,1,0,0,0,1
2025-10-24 15:45:52.863,-3,0,0,0,0,0,0,0,0,0,0,0,0,0,0,0,0,0,0,0,0,0,0,0,0,0,0,0,0,0,0,0
2025-10-24 15:45:53.884,-1,1,0,1,0,1,0,1,0,1,0,1,0,1,0,1,0,1,0,1,0,1,0,1,0,1,0,1,0,1,0,1
2025-10-24 15:45:54.864,0,0,1,0,0,0,1,0,0,0,1,0,0,0,1,0,0,1,1,0,0,0,1,0,0,0,1,0,0,0,1,0
2025-10-24 15:45:55.885,1,0,0,0,0,0,0,0,1,0,0,0,0,0,0,0,0,0,0,0,0,0,0,0,0,0,0,0,0,0,0,0
2025-10-24 15:45:56.842,1,0,0,0,0,0,0,0,0,0,0,0,0,0,0,0,0,0,0,0,0,0,0,0,0,0,0,0,0,0,0,0
2025-10-24 15:45:57.863,2,0,0,0,1,0,0,0,0,0,0,0,1,0,0,0,0,0,0,0,1,0,0,0,0,0,0,0,1,0,0,0
2025-10-24 15:45:58.885,4,0,0,0,0,0,0,0,0,0,0,0,0,0,0,1,0,1,0,0,0,0,0,0,0,0,0,0,0,0,0,1
2025-10-24 15:45:59.842,4,1,0,0,0,1,0,0,0,1,0,0,0,1,0,0,1,1,0,0,0,1,0,0,0,1,0,0,0,1,0,0
2025-10-24 15:46:00.864,5,0,0,1,0,0,0,1,0,0,0,1,0,0,0,1,0,1,0,1,0,0,0,1,0,0,0,1,0,0,0,1
2025-10-24 15:46:01.885,6,0,0,0,0,0,0,0,0,0,0,0,0,0,0,0,0,0,0,0,0,0,0,0,0,0,0,0,0,0,0,0
2025-10-24 15:46:02.843,8,1,1,1,0,1,0,1,0,1,1,1,0,1,0,1,0,1,1,1,0,1,0,1,0,1,1,1,0,1,0,1
2025-10-24 15:46:03.865,10,1,0,0,1,1,0,0,0,1,0,0,0,1,0,1,0,1,0,0,1,1,0,0,0,1,0,0,0,1,0,1
2025-10-24 15:46:04.887,0,1,0,1,0,1,1,0,0,1,0,1,0,1,1,2,0,1,0,1,0,1,1,0,0,1,0,1,0,1,1,0
2025-10-24 15:46:05.846,2,1,1,1,1,1,1,1,1,1,1,1,1,1,1,2,1,1,1,1,1,1,1,1,1,1,1,1,1,1,1,0
2025-10-24 15:46:06.868,0,1,1,5,0,1,1,1,1,1,1,1,0,1,1,1,1,1,1,0,0,1,1,1,1,1,1,1,0,2,1,0
2025-10-24 15:46:07.826,2,1,1,7,0,0,1,1,1,0,1,1,1,0,1,1,1,1,1,1,1,0,1,1,1,0,1,1,1,1,1,0
2025-10-24 15:46:08.848,1,1,1,7,1,1,1,1,1,1,1,1,1,1,1,2,1,1,1,1,1,1,1,1,1,1,1,1,0,0,1,0
2025-10-24 15:46:09.870,1,1,1,8,2,1,1,1,1,1,1,1,1,1,1,2,1,2,1,1,1,1,1,1,1,1,1,1,1,1,1,0
2025-10-24 15:46:10.827,1,1,1,7,1,0,1,1,1,1,1,1,1,0,1,1,1,1,1,0,1,0,1,1,1,1,1,1,0,0,1,1
2025-10-24 15:46:11.849,1,1,1,6,1,1,1,1,1,1,1,1,1,0,1,1,1,1,1,1,1,1,1,1,1,1,1,1,1,0,1,1
2025-10-24 15:46:12.872,0,1,1,3,1,1,1,1,1,1,1,1,0,1,1,1,1,1,1,1,1,1,1,1,1,1,1,1,1,1,1,1
2025-10-24 15:46:13.830,0,1,1,2,1,0,1,1,1,1,1,1,1,0,1,2,1,1,1,1,1,0,1,1,1,1,1,1,1,0,1,1
2025-10-24 15:46:14.852,0,0,1,3,1,1,1,0,1,0,1,1,1,1,1,1,1,0,1,1,1,1,1,0,1,0,1,1,1,1,1,0
2025-10-24 15:46:15.874,0,1,0,3,1,1,0,1,1,1,0,1,1,1,0,2,1,1,0,1,1,1,0,1,1,1,0,1,1,1,0,1
2025-10-24 15:46:16.832,0,1,1,3,2,1,1,1,1,1,1,1,1,1,1,2,1,1,1,1,1,1,1,1,1,1,2,1,0,0,1,1
2025-10-24 15:46:17.854,0,0,1,4,1,1,1,1,1,0,1,1,1,1,1,0,1,1,1,1,1,1,1,1,1,0,1,1,1,1,1,1
2025-10-24 15:46:18.876,0,0,0,3,1,1,1,1,1,0,0,0,1,1,1,1,1,1,0,0,1,1,1,1,1,0,0,0,1,0,1,1
2025-10-24 15:46:19.834,0,1,0,4,1,1,1,1,1,1,1,1,1,1,1,2,1,1,0,1,1,1,1,1,1,1,1,1,1,1,1,1
2025-10-24 15:46:20.856,0,0,0,5,1,1,1,0,1,0,0,1,1,1,1,1,1,0,0,0,1,1,1,0,1,0,0,1,1,1,1,0
2025-10-24 15:46:21.877,0,0,0,5,1,0,1,1,0,0,1,1,1,1,0,1,1,0,0,1,1,0,1,1,1,0,1,1,1,1,0,0
2025-10-24 15:46:22.836,0,0,0,5,1,1,1,1,1,0,0,1,1,1,0,1,1,1,1,0,1,1,1,1,1,0,0,1,1,1,1,1
2025-10-24 15:46:23.857,0,0,1,5,1,1,1,1,1,0,1,0,1,1,1,1,1,0,1,1,1,1,1,1,1,0,1,0,1,1,1,0
2025-10-24 15:46:24.878,0,0,1,6,1,0,1,0,1,0,0,0,1,1,1,1,1,0,0,0,1,0,1,1,1,0,0,0,1,1,1,0
2025-10-24 15:46:25.837,0,1,0,5,1,1,1,0,1,0,1,1,1,0,1,2,1,1,0,1,1,1,1,0,1,0,1,1,1,0,0,1
2025-10-24 15:46:26.859,0,0,0,6,1,1,1,1,1,0,0,1,1,1,0,1,1,0,1,1,1,1,1,1,1,0,0,1,1,1,1,0
2025-10-24 15:46:27.881,0,2,1,6,1,1,1,1,1,1,0,0,1,1,1,2,1,1,0,1,1,1,1,1,1,1,0,0,1,0,1,0
2025-10-24 15:46:28.839,0,0,0,6,1,1,1,1,1,0,0,1,1,1,0,1,1,0,1,1,1,1,1,1,1,0,0,1,1,1,0,0
2025-10-24 15:46:29.861,1,2,1,6,1,1,1,1,1,1,0,0,0,1,1,1,1,1,0,0,1,1,1,1,1,1,0,0,0,1,1,0
2025-10-24 15:46:30.883,0,1,2,7,0,1,0,1,0,1,1,0,0,0,1,1,1,1,1,0,0,1,0,1,0,1,1,0,0,0,1,0
2025-10-24 15:46:31.842,0,1,1,6,1,1,0,1,1,1,0,0,0,1,1,2,1,1,1,1,1,1,0,1,1,1,0,0,0,0,1,1
2025-10-24 15:46:32.863,0,1,1,7,0,1,0,1,0,1,0,0,0,0,0,1,1,1,0,0,0,1,0,1,0,1,0,0,0,0,1,0
2025-10-24 15:46:33.884,0,2,1,8,0,0,1,1,1,0,1,0,1,0,1,2,1,1,0,1,0,0,1,0,1,0,1,0,1,1,1,0
2025-10-24 15:46:34.843,0,2,1,6,0,1,0,1,1,1,0,1,1,1,0,1,1,1,0,1,0,1,0,1,1,1,0,1,1,1,1,1
2025-10-24 15:46:35.864,0,2,1,7,0,0,0,1,0,1,1,1,0,0,1,2,0,1,1,1,0,0,0,0,1,1,1,1,0,1,1,0
2025-10-24 15:46:36.886,1,1,1,7,0,0,0,1,0,0,1,0,1,0,1,1,1,1,1,1,0,0,0,1,1,0,1,0,1,1,1,0
2025-10-24 15:46:37.844,1,1,2,8,0,1,1,1,1,1,1,0,0,1,0,1,1,1,0,0,0,2,1,1,1,1,1,0,0,2,1,0
2025-10-24 15:46:38.866,0,1,1,7,0,0,1,1,0,0,1,1,1,0,1,1,0,1,1,1,1,0,1,1,1,0,1,0,1,1,1,0
2025-10-24 15:46:39.824,0,0,2,7,0,1,1,0,1,0,1,0,0,1,1,1,1,0,1,0,0,1,1,0,1,0,1,0,0,1,1,0
2025-10-24 15:46:40.846,0,1,1,7,0,0,0,1,0,0,1,1,1,0,1,1,0,1,1,1,1,0,0,1,1,0,1,0,1,1,1,0
2025-10-24 15:46:41.868,0,2,1,7,1,1,1,1,1,1,1,1,1,1,1,2,1,1,1,1,1,1,1,1,1,1,1,1,1,0,1,0
2025-10-24 15:46:42.827,1,1,1,7,0,0,1,1,0,0,1,1,1,0,1,1,1,1,1,1,1,0,1,1,1,0,1,1,1,1,1,0
2025-10-24 15:46:43.848,2,1,1,7,1,1,1,1,1,0,1,1,1,1,1,1,1,1,1,1,1,1,1,1,1,0,1,1,1,1,1,0
2025-10-24 15:46:44.870,1,1,1,7,1,1,1,1,1,1,1,1,1,1,1,2,1,1,1,1,1,1,1,1,1,1,1,1,0,1,1,1
2025-10-24 15:46:45.828,0,1,1,7,0,1,1,1,1,1,1,1,1,1,1,1,1,1,1,2,1,1,1,1,1,1,1,1,1,0,1,0
2025-10-24 15:46:46.850,1,1,1,7,1,2,1,1,1,1,1,1,1,1,1,2,1,1,1,1,1,1,1,1,1,1,1,1,1,1,1,1
2025-10-24 15:46:47.872,0,1,1,6,1,0,1,1,1,1,1,1,1,0,1,2,1,1,1,1,1,0,1,1,1,1,1,1,2,0,1,1
2025-10-24 15:46:48.831,1,1,1,8,1,1,1,1,1,1,1,1,1,1,1,2,1,1,1,1,1,1,1,1,1,1,1,1,1,1,1,1
2025-10-24 15:46:49.853,0,1,1,7,1,1,1,1,1,0,1,1,1,1,1,1,1,1,1,1,1,1,1,1,1,0,1,0,2,0,1,0
2025-10-24 15:46:50.875,0,1,0,5,2,1,1,1,1,1,1,1,0,1,0,1,1,1,0,1,1,1,1,1,1,1,2,1,0,1,0,0
2025-10-24 15:46:51.833,0,1,1,6,1,1,1,1,1,1,1,1,1,0,1,2,1,1,1,1,1,1,1,1,1,1,1,1,2,0,1,1
2025-10-24 15:46:52.855,0,1,1,6,2,2,1,1,1,1,1,1,0,1,1,1,1,1,1,1,1,1,1,1,1,1,1,1,0,1,1,0
2025-10-24 15:46:53.877,0,1,0,5,2,1,1,1,1,1,1,1,0,1,1,2,1,1,0,0,0,1,1,1,1,1,1,1,1,0,0,1
2025-10-24 15:46:54.835,1,0,1,6,2,1,1,1,1,0,1,1,1,0,1,0,1,1,1,1,1,1,1,1,1,0,1,1,1,1,1,1
2025-10-24 15:46:55.858,0,1,1,5,1,1,1,1,1,1,1,0,0,1,1,2,1,1,1,1,0,1,1,1,1,1,1,1,1,0,1,0
2025-10-24 15:46:56.879,0,1,0,5,1,1,1,1,1,1,1,1,0,0,1,2,1,1,0,1,1,1,1,1,1,1,1,1,1,0,0,1
2025-10-24 15:46:57.837,0,1,1,5,2,1,1,1,1,1,1,0,0,1,1,1,1,1,1,1,0,1,1,1,1,1,1,0,0,1,1,0
2025-10-24 15:46:58.859,0,1,0,5,2,1,1,1,1,1,1,1,1,1,1,1,1,1,0,0,1,1,1,1,1,1,1,1,1,1,1,1
2025-10-24 15:46:59.881,0,1,0,5,1,1,1,1,1,1,1,1,0,0,0,2,1,1,0,0,1,1,1,1,1,1,1,1,1,1,1,1
2025-10-24 15:47:00.839,0,0,0,5,1,1,1,1,1,0,1,0,0,1,0,1,1,1,0,0,0,1,1,1,1,0,1,1,1,0,1,1
2025-10-24 15:47:01.860,0,1,0,5,2,1,0,1,1,1,0,1,1,1,0,2,1,1,0,0,1,1,0,1,1,1,1,1,0,1,0,0
2025-10-24 15:47:02.840,0,1,1,5,1,1,1,1,1,1,1,1,0,1,1,2,1,1,1,0,0,1,1,1,1,1,1,1,1,0,1,1
2025-10-24 15:47:03.862,0,1,0,5,1,1,1,1,1,1,1,1,0,0,0,1,1,1,1,1,1,1,1,1,1,1,1,1,1,0,1,1
2025-10-24 15:47:04.884,0,0,0,4,1,1,1,1,1,0,0,1,1,1,0,1,1,1,1,0,1,0,1,1,1,0,0,1,1,1,1,1
2025-10-24 15:47:05.842,0,1,0,6,1,1,1,1,1,1,1,1,0,0,1,1,1,1,0,1,1,1,1,1,1,1,1,1,1,0,0,1
2025-10-24 15:47:06.864,0,0,0,5,1,1,1,1,1,0,0,1,1,1,1,1,0,1,0,0,1,1,1,1,1,0,0,1,1,1,1,1
2025-10-24 15:47:07.823,0,1,0,5,1,1,1,1,1,1,1,1,0,0,1,2,1,1,0,0,1,1,1,1,1,1,1,1,1,1,1,1
2025-10-24 15:47:08.844,0,0,0,5,1,1,1,1,1,0,0,1,1,1,1,1,1,1,0,0,1,1,1,1,1,0,0,1,1,1,1,1
2025-10-24 15:47:09.865,0,0,0,5,0,1,1,1,0,0,1,0,0,1,0,1,1,0,0,1,0,1,1,1,1,0,1,0,0,1,0,0
2025-10-24 15:47:10.824,0,0,1,4,1,1,1,1,1,0,1,1,1,1,1,1,1,1,1,0,1,1,1,1,1,0,1,1,1,1,1,1
2025-10-24 15:47:11.846,0,0,0,5,1,1,1,1,0,0,1,0,1,1,0,1,1,0,0,1,1,1,1,1,1,0,1,0,1,1,0,0
2025-10-24 15:47:12.867,0,0,2,6,0,1,0,1,1,0,1,0,0,1,0,1,1,1,1,0,0,1,0,1,1,0,1,0,0,1,1,1
2025-10-24 15:47:13.826,0,1,0,5,1,0,1,1,0,0,0,1,1,0,1,1,1,1,0,1,1,0,1,1,1,0,0,1,1,1,0,1
2025-10-24 15:47:14.848,1,1,2,6,1,1,0,1,1,1,1,0,1,1,1,2,1,1,1,1,1,1,0,1,1,1,1,0,1,1,0,0
2025-10-24 15:47:15.870,0,1,1,7,0,0,0,1,0,1,1,1,0,0,1,1,1,1,1,1,0,0,0,0,0,1,1,1,1,0,1,0
2025-10-24 15:47:16.827,0,2,2,6,0,0,0,1,1,1,1,0,0,1,1,2,1,1,1,0,0,0,0,1,1,1,1,0,0,1,0,0
2025-10-24 15:47:17.850,1,1,1,7,0,0,0,1,0,0,1,1,1,0,1,1,1,1,1,1,1,0,0,1,1,0,1,1,1,1,1,0
2025-10-24 15:47:18.872,1,1,1,8,1,1,1,1,1,1,1,1,1,1,1,1,1,1,1,1,1,1,1,1,1,1,1,1,1,2,1,1
2025-10-24 15:47:19.830,1,1,1,7,1,1,0,1,1,1,1,1,1,1,1,2,1,1,1,1,1,1,0,1,1,1,1,1,0,1,1,0
2025-10-24 15:47:20.852,1,1,1,7,1,1,1,1,1,1,1,1,1,1,1,2,1,1,1,1,1,1,1,1,1,1,1,1,0,0,1,1
2025-10-24 15:47:21.874,0,1,1,6,1,0,1,1,1,1,1,1,1,1,1,2,1,1,1,1,1,0,1,1,1,1,1,0,2,0,1,0
2025-10-24 15:47:22.832,0,1,1,7,1,1,1,1,1,1,1,1,1,0,1,2,1,1,1,1,1,1,1,1,1,1,1,1,2,1,1,0
2025-10-24 15:47:23.854,0,0,1,5,2,1,1,1,1,0,1,1,1,1,1,1,1,1,1,1,1,1,1,1,1,0,1,1,0,1,1,1
2025-10-24 15:47:24.876,0,0,0,5,2,1,1,1,1,0,1,1,0,1,0,1,1,0,0,1,1,1,1,1,1,0,1,1,0,1,1,0
2025-10-24 15:47:25.834,0,1,0,5,1,1,1,1,1,1,1,1,0,1,0,2,1,1,0,1,0,1,1,1,1,1,1,1,1,0,1,0
2025-10-24 15:47:26.856,0,0,0,4,1,1,1,1,1,0,1,1,1,0,1,1,1,1,0,1,1,1,1,1,1,0,1,1,1,1,0,1
2025-10-24 15:47:27.877,0,0,0,5,1,1,1,0,1,0,1,1,1,1,1,1,1,0,0,0,1,1,1,0,1,0,1,1,1,1,1,0
2025-10-24 15:47:28.836,0,1,1,4,1,1,1,0,1,1,1,0,1,0,1,1,1,1,1,1,1,1,1,0,1,1,1,0,1,1,1,1
2025-10-24 15:47:29.858,0,0,0,4,1,1,1,1,0,0,1,0,1,1,1,1,1,0,0,0,1,1,1,1,1,0,1,0,1,1,1,0
2025-10-24 15:47:30.879,0,0,1,4,0,1,0,0,1,1,1,0,0,0,1,1,1,1,1,1,0,1,0,0,1,1,1,0,0,0,1,1
2025-10-24 15:47:31.837,0,0,0,4,0,1,1,1,0,0,0,0,0,1,1,0,1,1,0,1,0,1,1,1,1,0,0,0,0,0,1,1
2025-10-24 15:47:32.859,0,0,1,5,0,1,0,1,1,0,1,0,0,1,0,1,1,1,1,0,0,1,0,1,1,0,1,0,0,2,1,1
2025-10-24 15:47:33.881,0,1,1,6,0,0,0,1,1,1,0,0,0,1,1,2,1,1,1,0,0,0,0,1,1,1,0,0,0,1,1,1
2025-10-24 15:47:34.839,0,1,0,4,1,1,1,1,1,1,0,0,0,1,1,2,1,1,0,0,1,1,1,1,1,1,0,0,0,1,0,0
2025-10-24 15:47:35.861,0,2,2,6,0,1,1,1,1,1,1,0,0,0,1,2,1,1,1,0,0,1,1,1,1,1,1,0,0,1,0,0
2025-10-24 15:47:36.883,0,1,1,7,0,0,0,1,0,0,1,0,1,0,1,2,1,1,1,1,1,0,0,1,1,0,1,1,1,0,1,0
2025-10-24 15:47:37.840,0,1,1,7,0,0,0,1,1,0,1,1,0,0,0,1,1,1,0,1,0,0,0,1,1,0,1,0,1,0,1,0
2025-10-24 15:47:38.862,1,1,1,7,0,0,1,1,0,0,1,1,1,0,1,1,1,1,1,1,0,0,1,1,1,0,1,1,1,1,1,0
2025-10-24 15:47:39.884,1,1,1,8,1,1,1,1,1,0,1,1,1,1,1,1,1,1,1,1,1,1,1,1,1,0,1,1,1,1,1,0
2025-10-24 15:47:40.842,2,1,1,7,0,0,0,1,1,0,1,1,1,0,1,1,1,1,1,1,0,0,0,1,1,0,1,1,1,1,1,0
2025-10-24 15:47:41.864,1,1,1,8,1,1,1,1,1,0,1,1,1,1,1,1,1,1,1,1,1,1,1,1,1,0,1,1,1,1,1,0
2025-10-24 15:47:42.822,1,1,1,7,0,1,0,1,1,0,1,1,1,0,1,1,1,1,1,1,0,0,0,1,1,0,1,1,1,1,1,0
2025-10-24 15:47:43.844,0,1,1,8,1,1,1,1,1,0,1,1,1,1,1,1,1,1,1,1,1,1,1,1,1,0,1,1,1,1,1,0
2025-10-24 15:47:44.866,1,1,1,7,1,2,1,1,1,1,1,1,1,1,1,2,1,1,1,1,1,1,1,1,1,1,1,1,1,1,1,0
2025-10-24 15:47:45.825,1,1,1,8,1,1,1,1,1,1,1,1,1,1,1,2,1,2,1,1,1,1,1,1,1,1,1,1,1,1,1,0
2025-10-24 15:47:46.846,0,1,1,8,1,2,1,1,1,1,1,1,1,0,1,2,1,1,1,0,1,1,1,1,1,1,1,1,1,1,1,1
2025-10-24 15:47:47.868,0,1,1,6,1,0,1,1,1,1,1,1,1,1,1,1,1,1,1,1,1,0,1,1,1,1,1,0,2,0,1,0
2025-10-24 15:47:48.827,0,1,1,7,1,1,1,1,0,1,1,1,1,1,1,2,1,1,1,1,1,1,1,1,1,1,1,1,1,1,1,0
2025-10-24 15:47:49.849,0,1,1,6,1,1,1,1,1,1,1,1,1,1,1,2,1,1,1,1,1,1,1,1,1,1,1,0,2,0,1,1
2025-10-24 15:47:50.870,0,1,0,5,1,1,1,1,1,1,1,0,0,1,1,2,1,1,0,1,0,1,1,1,1,1,1,1,1,1,1,0
2025-10-24 15:47:51.828,0,1,0,6,1,1,0,1,1,1,0,1,1,1,0,2,1,1,0,1,1,1,0,1,1,1,0,1,1,1,0,0
2025-10-24 15:47:52.850,0,0,0,5,1,1,1,1,1,0,1,1,0,1,1,1,1,1,0,1,0,1,1,1,1,0,1,1,1,0,1,1
2025-10-24 15:47:53.872,0,1,0,5,1,1,1,1,1,1,1,1,0,0,1,1,1,1,0,1,1,1,1,1,1,1,1,1,1,0,0,1
2025-10-24 15:47:54.831,0,1,1,5,1,1,1,1,1,1,1,1,0,1,1,2,1,1,1,1,0,1,1,1,1,1,1,1,1,0,1,1
2025-10-24 15:47:55.852,0,1,0,5,1,1,1,1,1,1,1,1,0,0,1,1,1,1,0,1,1,1,1,1,1,1,1,1,1,0,0,1
2025-10-24 15:47:56.874,0,0,0,5,1,1,1,1,1,0,0,1,1,1,1,1,0,0,0,0,1,1,1,1,1,0,0,1,1,1,1,0
2025-10-24 15:47:57.832,0,1,0,4,1,1,1,1,1,1,1,1,0,0,1,2,1,1,0,1,1,1,1,1,1,1,1,1,1,1,0,1
2025-10-24 15:47:58.854,0,0,0,5,1,1,1,0,1,0,0,1,1,1,1,1,1,0,0,0,1,1,1,0,1,0,0,1,1,1,1,0
2025-10-24 15:47:59.876,0,0,1,4,1,1,1,1,0,0,1,0,1,1,0,1,1,1,0,1,1,1,1,1,1,0,1,0,1,0,0,1
2025-10-24 15:48:00.834,0,1,0,5,1,1,1,0,1,0,1,1,1,0,1,2,1,1,0,1,1,1,1,0,1,0,1,1,1,0,0,1
2025-10-24 15:48:01.856,0,0,1,6,0,1,1,0,1,0,0,0,0,1,1,1,1,0,0,1,0,1,1,1,1,0,0,0,0,1,1,0
2025-10-24 15:48:02.878,0,1,1,5,0,1,0,1,0,1,1,1,1,1,1,1,1,1,1,1,0,1,0,1,1,1,1,1,1,1,1,1
2025-10-24 15:48:03.836,0,0,1,6,0,1,0,1,1,0,1,0,0,1,0,1,0,1,0,0,0,1,0,1,1,0,1,0,0,1,1,0
2025-10-24 15:48:04.858,0,2,2,7,0,0,0,1,1,1,1,0,0,0,1,1,1,1,0,0,0,0,0,1,1,1,1,1,0,0,0,0
2025-10-24 15:48:05.880,1,1,1,7,0,0,1,1,0,0,1,0,1,0,1,1,1,1,1,1,0,0,1,1,1,0,1,0,1,1,1,0
2025-10-24 15:48:06.838,1,2,1,7,0,1,0,1,1,1,1,0,1,0,1,2,1,1,1,1,0,1,0,1,1,1,1,0,0,1,1,0
2025-10-24 15:48:07.860,1,1,1,7,0,1,0,1,1,1,1,1,1,1,1,2,1,1,1,1,1,1,0,1,1,1,1,1,0,0,1,0
2025-10-24 15:48:08.882,0,1,1,7,1,1,1,1,1,1,1,1,1,1,1,1,0,1,1,1,1,1,1,1,1,1,1,1,1,0,1,0
2025-10-24 15:48:09.840,1,1,1,7,1,0,1,1,1,1,1,1,1,0,1,2,1,1,1,1,1,0,1,1,1,1,1,1,1,1,1,0
2025-10-24 15:48:10.884,0,1,1,5,1,1,1,1,1,1,1,1,1,1,1,2,1,1,1,1,1,1,1,1,1,1,1,1,1,1,1,0
2025-10-24 15:48:11.842,0,1,1,6,2,1,1,1,1,1,1,1,1,0,1,2,1,1,1,1,2,1,1,1,1,1,1,1,2,1,1,0
2025-10-24 15:48:12.864,0,1,1,5,1,1,1,1,1,1,1,1,0,0,1,2,1,1,1,1,0,1,1,1,1,1,1,1,1,0,1,0
2025-10-24 15:48:13.822,0,1,1,4,2,1,1,1,1,1,1,1,0,1,1,2,1,1,1,1,1,1,1,1,1,1,1,1,0,1,1,0
2025-10-24 15:48:14.844,0,1,0,6,1,1,1,1,0,1,1,1,1,0,1,1,1,1,0,1,1,1,1,1,1,1,1,1,1,0,1,1
2025-10-24 15:48:15.866,0,1,0,5,1,1,1,0,1,0,1,1,1,0,1,2,1,1,0,0,1,1,1,0,1,0,1,1,1,0,0,1
2025-10-24 15:48:16.823,0,0,0,4,1,0,1,1,1,0,0,1,1,0,0,1,1,0,1,1,1,0,1,1,1,0,0,1,1,1,1,0
2025-10-24 15:48:17.845,0,0,0,5,1,1,1,1,0,0,1,0,0,1,0,0,1,0,0,0,1,1,1,1,1,0,1,0,0,1,0,0
2025-10-24 15:48:18.867,0,1,2,6,0,0,0,0,0,0,1,0,0,1,1,2,0,1,1,0,0,0,0,0,1,0,1,0,0,1,0,0
2025-10-24 15:48:19.825,0,1,0,6,1,0,1,0,0,0,0,0,1,0,1,1,1,1,0,0,1,0,1,1,1,0,0,0,1,1,0,1
2025-10-24 15:48:20.847,0,2,2,5,1,1,1,1,1,1,0,0,0,1,0,2,0,1,0,0,1,1,1,1,1,1,0,0,0,1,0,0
2025-10-24 15:48:21.868,0,0,2,7,0,1,0,0,1,0,1,0,0,1,1,1,1,0,1,0,0,1,0,0,1,0,1,0,0,1,1,0
2025-10-24 15:48:22.827,0,2,0,6,1,1,1,1,1,1,0,0,1,0,0,1,1,0,0,0,1,1,1,1,1,1,0,0,1,0,1,0
2025-10-24 15:48:23.849,1,2,1,8,0,1,0,1,1,0,1,0,1,0,1,2,1,1,0,1,0,1,0,1,1,0,1,0,1,1,1,0
2025-10-24 15:48:24.871,2,1,1,7,1,1,0,1,1,1,1,0,1,1,1,2,1,1,1,1,1,1,0,1,1,1,1,1,0,1,1,0
2025-10-24 15:48:25.829,1,1,1,7,1,1,0,1,1,0,1,1,0,0,1,1,1,1,1,1,1,0,0,1,1,0,1,1,0,1,1,0
2025-10-24 15:48:26.851,1,1,1,8,1,1,1,1,1,1,1,1,1,1,1,2,1,1,1,1,1,1,1,1,1,1,1,1,1,2,1,0
2025-10-24 15:48:27.872,0,1,1,6,1,1,1,0,1,0,1,1,1,0,1,2,1,1,1,0,1,1,1,0,1,0,1,1,1,1,1,0
2025-10-24 15:48:28.831,0,1,1,7,1,1,1,1,1,1,1,1,0,1,1,1,0,1,1,1,1,1,1,1,1,1,1,1,1,1,1,0
2025-10-24 15:48:29.853,0,0,1,6,1,1,1,1,1,0,1,1,1,0,1,1,1,1,1,1,1,1,1,1,1,0,1,1,1,1,1,1
2025-10-24 15:48:30.875,0,1,0,5,1,1,1,1,1,1,1,1,0,1,0,2,1,1,0,1,1,1,1,1,1,1,1,1,1,0,1,0
2025-10-24 15:48:31.833,0,1,1,4,2,2,1,1,1,1,1,1,1,0,1,2,1,1,1,1,1,1,1,1,1,1,1,1,0,1,1,0
2025-10-24 15:48:32.855,0,1,0,5,2,1,1,1,0,1,1,1,1,1,0,2,1,1,0,1,1,1,1,1,1,1,1,1,0,1,1,0
2025-10-24 15:48:33.877,0,0,0,4,1,0,1,1,1,0,1,1,1,0,1,1,1,0,0,1,1,0,1,1,1,0,1,1,1,1,1,0
2025-10-24 15:48:34.835,0,0,0,5,2,1,1,1,1,0,1,1,1,1,1,1,1,0,0,1,1,1,1,1,1,0,1,1,1,1,0,0
2025-10-24 15:48:35.857,0,1,0,4,1,1,1,1,1,1,1,1,1,0,0,2,1,1,1,0,1,1,1,1,1,1,1,1,1,1,1,1
2025-10-24 15:48:36.879,0,0,0,5,0,1,1,1,0,0,1,0,0,1,1,1,1,0,0,1,0,1,1,1,1,0,1,0,0,1,1,0
2025-10-24 15:48:37.837,0,0,0,5,1,1,1,0,1,0,0,1,1,1,0,1,1,1,1,0,1,1,1,0,1,0,0,1,1,1,1,1
2025-10-24 15:48:38.858,0,0,0,5,1,1,1,1,1,0,0,0,1,1,1,1,1,1,0,1,1,1,1,1,1,0,0,0,1,1,1,1
2025-10-24 15:48:39.880,0,0,0,6,1,1,1,1,0,0,0,1,1,1,1,1,1,0,0,1,1,1,1,1,1,0,0,1,1,1,0,1
2025-10-24 15:48:40.838,0,1,1,5,1,1,1,0,0,0,1,1,1,0,1,2,1,1,0,1,1,1,1,0,0,0,1,1,1,0,0,1
2025-10-24 15:48:41.860,0,0,1,6,1,1,1,1,1,0,0,1,1,1,1,1,1,0,0,1,1,1,1,1,1,0,0,1,1,1,1,0
2025-10-24 15:48:42.882,0,1,1,5,1,1,1,1,1,1,0,0,1,1,1,2,0,1,0,0,1,1,1,1,1,1,0,1,1,1,1,0
2025-10-24 15:48:43.841,0,0,0,6,0,1,1,0,0,0,0,0,0,1,0,1,1,0,1,0,0,1,1,1,0,0,0,0,0,1,1,0
2025-10-24 15:48:44.862,0,1,0,5,1,1,1,1,0,1,0,1,1,1,0,1,1,1,0,1,1,1,1,1,1,1,0,1,1,1,1,0
2025-10-24 15:48:45.820,0,0,1,6,0,1,1,0,1,0,0,0,0,1,0,1,0,1,1,0,0,1,1,1,1,0,0,0,0,1,1,1
2025-10-24 15:48:46.843,1,1,2,5,0,1,0,1,1,1,0,1,1,1,0,1,1,1,0,1,0,1,0,1,1,1,0,1,1,1,0,1
2025-10-24 15:48:47.865,0,0,1,8,0,1,1,0,0,0,1,0,1,0,0,1,0,1,0,0,0,1,1,0,1,0,1,0,0,1,1,1
2025-10-24 15:48:48.823,1,2,2,6,0,0,0,1,1,1,1,0,0,1,0,2,1,1,0,0,0,0,0,1,1,1,1,0,0,0,0,0
2025-10-24 15:48:49.845,0,0,1,7,0,1,1,1,0,0,1,1,1,0,1,1,0,1,1,1,0,1,1,1,1,0,1,0,1,1,1,1
2025-10-24 15:48:50.867,1,2,1,7,0,1,1,1,1,0,1,0,1,1,1,2,1,1,1,1,1,1,1,1,1,0,1,1,0,1,1,0
2025-10-24 15:48:51.825,1,1,1,7,0,0,1,1,1,0,1,0,1,0,1,1,1,1,1,1,1,0,1,1,1,0,1,0,0,1,1,0
2025-10-24 15:48:52.847,0,2,1,7,0,1,1,1,1,1,1,1,1,1,1,2,1,1,1,2,1,1,1,1,1,1,1,1,0,1,1,0
2025-10-24 15:48:53.869,0,1,1,7,1,1,1,1,1,1,1,0,1,1,1,2,1,1,1,1,1,1,1,1,1,1,1,1,2,1,1,0
2025-10-24 15:48:54.827,0,1,1,7,0,1,1,1,1,1,1,1,1,1,1,1,1,1,1,2,1,1,1,1,1,1,1,1,1,0,1,0
2025-10-24 15:48:55.849,1,1,1,7,1,2,1,1,1,1,1,1,1,1,1,2,1,1,1,1,1,2,1,1,1,1,1,1,1,0,1,1
2025-10-24 15:48:56.871,0,1,1,7,1,1,1,1,1,0,1,1,1,1,1,1,1,1,1,1,1,1,1,1,1,0,1,0,2,0,1,1
2025-10-24 15:48:57.829,1,1,1,7,2,1,1,0,1,0,1,1,1,1,1,2,1,1,1,1,1,1,1,0,1,0,1,1,1,1,1,0
2025-10-24 15:48:58.851,0,1,1,5,2,1,1,1,1,1,1,1,1,1,1,2,1,1,1,2,1,1,1,1,1,1,1,1,1,1,1,0
2025-10-24 15:48:59.873,0,1,0,5,2,1,1,1,1,1,1,1,1,1,1,1,1,1,0,0,1,1,1,1,1,1,1,1,1,1,1,1
2025-10-24 15:49:00.831,0,1,1,5,2,1,1,1,1,1,1,0,0,1,1,2,1,1,1,1,1,1,1,1,1,1,2,0,0,1,1,0
2025-10-24 15:49:01.853,0,0,0,5,2,1,1,1,1,0,1,1,1,1,1,0,1,0,0,0,1,1,1,1,1,0,1,1,0,1,1,0
2025-10-24 15:49:02.875,0,1,0,4,1,1,1,1,1,1,0,1,1,0,0,2,1,1,1,1,1,1,1,1,1,1,0,1,1,1,1,1
2025-10-24 15:49:03.833,0,1,0,4,1,1,1,1,1,1,1,1,0,0,1,2,1,1,0,1,1,1,1,1,1,1,1,1,1,1,1,1
2025-10-24 15:49:04.855,0,0,0,5,1,1,1,0,1,0,0,1,1,1,1,1,1,1,0,0,1,1,1,0,1,0,0,1,1,1,1,1
2025-10-24 15:49:05.876,0,0,0,5,0,1,1,1,0,0,0,0,0,1,0,1,1,0,0,1,0,1,1,1,0,0,0,0,0,1,1,0
2025-10-24 15:49:06.834,0,0,0,4,1,1,1,1,1,0,0,1,1,1,0,1,1,1,1,0,1,1,1,1,1,0,0,1,1,1,1,1
2025-10-24 15:49:07.856,0,0,0,5,1,1,1,1,1,0,1,0,1,1,1,1,1,0,0,1,1,1,1,1,1,0,1,0,1,1,0,0
2025-10-24 15:49:08.877,0,0,0,6,1,0,1,0,1,0,0,0,1,1,0,1,1,0,0,0,1,0,1,1,1,0,0,0,1,1,0,0
2025-10-24 15:49:09.836,0,0,0,5,1,1,1,1,1,0,0,0,1,1,1,1,1,1,0,1,1,1,1,1,1,0,0,0,1,1,1,1
2025-10-24 15:49:10.857,0,0,0,6,1,1,1,1,0,0,0,0,1,1,1,1,1,0,0,0,1,1,1,1,1,0,0,0,1,1,0,0
2025-10-24 15:49:11.879,0,1,1,5,1,1,1,1,1,1,0,0,0,1,0,2,1,1,0,1,1,1,1,1,1,1,0,0,0,1,1,0
2025-10-24 15:49:12.837,0,0,1,6,1,1,1,0,0,0,0,0,1,1,1,1,1,0,0,0,1,1,1,1,0,0,0,0,1,1,1,0
2025-10-24 15:49:13.859,0,1,0,5,1,1,1,1,0,1,0,1,1,1,1,2,1,1,0,1,1,1,1,1,1,1,0,1,1,1,1,0
2025-10-24 15:49:14.881,1,2,1,8,0,1,1,1,1,0,1,0,1,1,0,2,1,1,0,1,1,1,1,1,1,0,1,0,0,1,1,0
2025-10-24 15:49:15.840,0,1,2,7,0,0,0,0,1,0,1,0,0,1,1,1,1,1,1,0,0,0,0,0,1,0,1,0,0,1,0,1
2025-10-24 15:49:16.862,1,1,1,5,1,1,1,1,1,0,1,1,0,0,1,2,1,1,1,1,0,1,1,1,1,0,1,1,1,1,1,1
2025-10-24 15:49:17.820,0,0,1,7,0,1,1,1,0,0,1,0,1,0,1,1,0,1,1,1,1,1,1,1,1,0,1,1,1,0,1,1
2025-10-24 15:49:18.864,0,1,1,6,1,1,1,1,1,1,1,1,1,1,1,1,0,1,1,1,1,1,1,1,1,1,1,1,1,0,1,0
2025-10-24 15:49:19.822,0,1,1,6,1,2,1,1,1,1,1,1,1,1,1,0,1,1,1,1,1,1,1,1,1,1,1,1,1,1,1,0
2025-10-24 15:49:20.844,0,1,1,6,1,1,1,1,1,1,1,1,1,1,1,2,1,1,1,1,1,1,1,1,1,1,1,1,2,0,1,0
2025-10-24 15:49:21.865,0,1,1,5,2,1,1,1,1,1,1,1,1,1,1,2,1,1,1,1,1,1,1,1,1,1,1,1,0,1,1,1
2025-10-24 15:49:22.824,0,1,1,6,1,1,1,1,1,1,1,1,1,1,1,1,1,1,1,1,1,1,1,1,1,1,1,0,2,0,1,1
2025-10-24 15:49:31.084,0,0,0,4,1,0,1,1,1,0,1,1,1,0,0,1,1,0,1,1,1,0,1,1,1,0,1,1,1,1,1,0
2025-10-24 15:49:32.105,0,1,0,5,1,1,1,1,1,0,1,1,1,1,0,1,1,1,0,1,1,1,1,1,1,0,1,1,1,1,1,1
2025-10-24 15:49:33.064,0,0,0,5,1,1,1,1,1,0,0,0,1,1,1,1,1,1,0,1,1,1,1,1,1,0,0,0,1,1,1,1
2025-10-24 15:49:34.085,0,0,1,6,1,1,0,1,1,0,1,0,0,1,1,0,0,1,1,0,1,1,0,1,1,0,1,0,0,1,1,1
2025-10-24 15:49:35.107,0,1,1,7,0,1,0,1,1,1,0,0,0,0,1,1,1,1,1,0,0,1,0,1,1,1,0,0,0,0,1,0
2025-10-24 15:49:36.065,0,1,1,5,0,1,1,1,1,1,0,1,0,1,0,1,1,1,0,1,0,1,1,1,1,1,0,1,0,1,1,0
2025-10-24 15:49:37.087,1,0,1,7,0,0,0,1,1,0,1,1,1,1,1,1,1,1,0,1,0,0,0,1,1,0,1,1,1,1,1,1
2025-10-24 15:49:38.109,1,1,1,8,1,1,1,1,1,0,1,1,1,1,1,1,1,1,1,1,1,1,1,1,1,0,1,1,1,1,1,0
2025-10-24 15:49:39.068,2,1,1,7,1,0,0,1,1,1,1,0,1,1,1,2,1,1,1,1,1,0,0,1,1,1,1,0,1,1,1,0
2025-10-24 15:49:40.089,1,1,1,7,2,1,1,1,1,1,1,1,1,1,1,1,1,1,1,0,1,1,1,1,1,1,1,1,1,0,1,1
2025-10-24 15:49:41.111,0,1,1,5,1,0,1,1,1,1,1,1,1,0,1,1,1,1,1,0,1,0,1,1,1,1,1,1,2,0,1,1
2025-10-24 15:49:42.070,0,1,1,6,1,1,1,1,1,1,2,1,1,0,1,2,1,1,1,1,1,1,1,1,1,1,1,1,2,1,1,0
2025-10-24 15:49:43.092,0,1,1,6,2,1,1,1,1,1,1,1,1,1,1,1,1,1,1,1,1,1,1,1,1,1,1,1,0,1,1,1
2025-10-24 15:49:44.113,0,1,0,4,2,1,1,1,1,1,1,1,1,1,1,2,1,1,0,1,1,1,1,1,1,1,1,1,1,1,1,1
2025-10-24 15:49:45.072,0,1,1,5,2,1,1,1,1,1,1,1,0,1,1,2,1,1,1,0,0,1,1,1,1,1,2,1,1,0,1,1
2025-10-24 15:49:46.094,0,0,1,4,1,0,1,0,1,0,1,0,1,0,1,1,1,0,1,0,1,0,1,0,1,0,1,0,1,1,1,1
2025-10-24 15:49:47.115,0,0,1,5,0,1,1,1,0,0,1,0,0,1,0,1,1,0,0,1,0,1,1,1,1,0,1,0,0,1,1,1
2025-10-24 15:49:48.073,0,0,1,5,1,1,1,0,1,0,1,1,1,1,1,1,1,0,1,0,1,1,1,0,1,0,1,1,1,1,1,0
2025-10-24 15:49:49.095,0,1,0,5,1,0,1,1,0,0,0,1,1,0,1,1,1,1,0,1,1,0,1,1,1,0,0,1,1,1,0,1
2025-10-24 15:49:50.117,0,1,2,6,1,1,0,1,1,1,0,0,1,1,1,2,1,1,1,0,1,1,0,1,1,1,0,0,1,1,1,0
2025-10-24 15:49:51.075,0,0,1,6,0,1,0,1,1,0,1,0,0,1,1,1,1,1,1,0,0,1,0,1,1,0,1,0,0,1,1,1
2025-10-24 15:49:52.097,0,1,2,6,0,0,0,2,1,1,1,0,0,0,1,1,1,1,1,0,0,0,0,1,1,1,1,0,0,1,0,0
2025-10-24 15:49:53.119,0,1,1,7,0,0,1,1,0,0,1,1,1,1,1,2,1,1,1,1,1,0,1,1,1,0,1,1,1,1,1,0
2025-10-24 15:49:54.077,0,2,1,7,0,1,0,1,0,1,1,0,1,0,1,2,0,1,1,1,0,1,0,1,1,1,1,0,0,1,1,0
2025-10-24 15:49:55.099,2,1,1,6,1,1,1,1,1,0,1,1,1,1,1,2,1,1,1,0,0,1,1,1,1,0,1,1,0,1,1,0
2025-10-24 15:49:56.057,0,1,1,7,0,1,1,1,0,0,1,1,1,1,1,2,0,1,1,1,1,1,1,1,1,0,1,1,1,1,1,1
2025-10-24 15:49:57.079,0,1,1,6,0,1,1,1,1,0,1,1,1,1,1,1,1,1,1,1,0,1,1,1,1,0,1,1,1,1,1,0
2025-10-24 15:49:58.100,1,1,1,6,1,2,1,1,1,1,1,1,1,1,1,1,1,1,1,1,1,1,1,1,1,1,1,1,2,1,1,0
2025-10-24 15:49:59.059,1,0,1,7,0,0,1,1,1,0,1,1,1,0,1,1,1,1,1,1,1,0,1,1,1,0,1,1,1,0,1,1
2025-10-24 15:50:00.081,1,1,1,7,1,1,1,1,1,1,1,1,1,1,1,2,1,1,1,1,1,1,1,1,1,1,1,1,1,1,1,1
2025-10-24 15:50:01.103,0,1,1,5,1,1,1,1,1,1,1,1,1,1,1,1,1,1,1,0,1,1,1,1,1,1,1,1,2,0,1,1
2025-10-24 15:50:02.061,0,1,1,6,1,1,1,1,1,1,1,1,1,1,1,2,1,1,1,1,1,1,1,1,1,1,1,1,2,1,1,0
2025-10-24 15:50:03.083,0,1,1,5,1,1,1,1,1,1,1,1,0,0,1,1,1,1,1,0,0,1,1,1,1,1,1,1,1,1,1,1
2025-10-24 15:50:04.105,0,1,1,3,2,1,1,1,1,1,1,1,1,1,1,2,1,1,1,1,1,1,1,1,1,1,1,1,0,1,1,0
2025-10-24 15:50:05.064,0,1,1,5,1,1,1,1,1,1,1,1,1,1,1,2,1,1,1,1,1,1,1,1,1,1,1,1,2,1,1,0
2025-10-24 15:50:06.086,0,0,1,4,2,2,1,1,1,0,1,1,1,1,1,1,1,1,1,1,1,1,1,1,1,0,1,1,0,1,1,1
2025-10-24 15:50:07.108,0,1,0,5,1,1,1,1,1,1,1,1,0,1,1,2,1,1,0,0,0,1,1,1,1,1,1,1,1,0,1,1
2025-10-24 15:50:08.066,0,1,1,4,2,2,1,1,1,1,1,1,1,1,1,2,1,1,1,1,1,1,1,1,1,1,1,1,0,1,1,0
2025-10-24 15:50:09.088,0,1,0,5,1,1,1,1,1,1,1,1,0,1,0,2,1,1,0,1,1,1,1,1,1,1,1,1,1,0,1,1
2025-10-24 15:50:10.110,0,0,0,5,1,1,1,1,1,0,1,1,0,0,1,1,1,0,0,1,1,1,1,1,1,0,1,1,1,0,0,0
2025-10-24 15:50:11.068,0,1,1,6,2,1,1,1,1,1,1,1,0,1,1,2,1,1,1,1,1,1,1,1,1,1,1,1,0,1,1,0
2025-10-24 15:50:12.090,0,1,0,5,2,1,0,1,1,1,0,1,1,1,0,2,1,1,0,0,1,1,0,1,1,1,0,1,0,1,0,0
2025-10-24 15:50:13.112,0,1,0,6,1,1,1,1,1,1,1,1,0,0,1,1,1,1,0,1,1,1,1,1,1,1,1,1,1,0,0,1
2025-10-24 15:50:14.070,0,1,1,5,1,1,1,1,1,1,1,1,0,1,1,1,1,1,1,1,0,1,1,1,1,1,1,1,1,1,1,0
2025-10-24 15:50:15.092,0,1,0,5,2,1,0,1,1,1,0,1,1,1,0,1,1,1,0,0,1,1,0,1,1,1,0,1,1,1,0,1
2025-10-24 15:50:16.114,0,1,0,5,1,1,1,1,1,1,1,1,0,0,1,1,1,1,0,1,1,1,1,1,1,1,1,1,1,0,0,1
2025-10-24 15:50:17.072,0,1,1,5,2,1,1,1,1,1,1,1,1,1,1,2,1,1,1,1,1,1,1,1,1,1,1,1,0,1,1,1
2025-10-24 15:50:18.093,0,1,1,5,1,1,1,1,1,1,1,1,0,1,1,2,1,1,1,1,0,1,1,1,1,1,1,1,1,0,1,1
2025-10-24 15:50:19.116,0,0,0,5,2,1,1,1,1,0,1,1,0,1,1,1,1,0,0,1,1,1,1,1,1,0,1,1,0,1,0,0
2025-10-24 15:50:20.074,0,1,1,5,2,2,1,1,1,1,1,1,1,1,1,2,1,1,1,1,1,1,1,1,1,1,1,1,0,1,1,1
2025-10-24 15:50:21.096,0,1,1,4,1,1,1,1,1,1,1,1,1,1,1,1,1,1,1,0,1,1,1,1,1,1,1,1,1,1,1,1
2025-10-24 15:50:22.118,0,1,0,4,1,1,1,1,1,1,1,0,0,1,0,2,1,1,0,1,1,1,1,1,1,1,1,0,1,0,1,0
2025-10-24 15:50:23.076,0,1,0,5,1,1,1,1,1,1,1,1,0,1,0,1,1,1,0,1,1,1,1,1,1,1,1,1,1,1,1,0
2025-10-24 15:50:24.098,0,0,0,4,2,1,1,1,1,0,1,1,1,1,0,0,1,1,1,0,1,1,1,1,1,0,1,1,1,1,0,1
2025-10-24 15:50:25.057,0,1,1,5,2,1,1,1,1,1,1,1,0,1,1,2,1,1,1,1,1,1,1,1,1,1,1,1,0,1,1,0
2025-10-24 15:50:26.079,0,1,0,6,1,1,1,1,1,1,1,1,1,0,0,2,1,1,0,1,1,1,1,1,1,1,1,1,1,1,1,1
2025-10-24 15:50:27.100,0,0,0,6,1,1,1,0,0,0,1,1,1,1,0,1,1,0,0,1,1,0,1,0,0,0,1,1,1,1,0,0
2025-10-24 15:50:28.058,0,0,0,7,2,1,1,1,1,0,1,0,0,1,0,1,1,0,0,0,0,1,1,1,1,0,2,2,0,0,0,0
2025-10-24 15:50:29.079,0,0,0,6,2,2,1,0,1,0,1,1,0,1,0,1,1,1,0,1,1,1,1,0,1,0,1,0,0,0,1,1
2025-10-24 15:50:30.101,0,0,0,6,1,1,1,0,1,0,1,0,0,1,1,1,1,1,0,0,1,1,1,0,1,0,1,1,1,1,1,1
2025-10-24 15:50:31.059,0,0,0,7,2,1,1,1,1,0,1,1,0,1,1,0,1,1,0,0,0,1,1,1,1,0,2,1,0,1,1,1
2025-10-24 15:50:32.081,0,1,0,7,2,2,2,1,1,1,1,0,0,1,1,2,1,1,0,0,1,1,1,1,1,1,1,1,0,0,0,0
2025-10-24 15:50:33.103,1,1,0,6,1,2,1,1,1,1,1,1,0,1,0,1,1,1,0,0,1,0,0,1,1,1,1,1,1,1,1,1
2025-10-24 15:50:34.061,0,0,0,7,1,1,1,0,1,0,1,1,0,1,1,1,1,1,0,0,0,1,1,0,1,0,2,1,1,1,1,1
2025-10-24 15:50:35.104,1,0,1,6,1,1,1,0,1,0,1,1,0,1,1,1,1,0,0,0,1,1,1,0,1,0,1,1,1,0,0,0
2025-10-24 15:50:36.063,0,1,0,7,2,1,2,1,1,1,1,0,0,1,0,1,1,1,0,0,0,1,1,1,1,1,1,1,0,0,0,1
2025-10-24 15:50:37.084,0,1,0,6,1,1,2,1,1,1,2,0,0,1,0,1,1,1,1,0,1,1,0,1,1,1,0,1,1,1,1,1
2025-10-24 15:50:38.107,1,1,1,6,1,1,1,1,1,1,1,1,1,1,0,1,1,2,0,1,1,1,1,1,1,1,1,1,1,1,1,1
2025-10-24 15:50:39.065,1,0,0,6,2,1,1,0,1,0,1,1,0,1,1,1,1,1,1,1,1,1,1,0,1,0,1,1,0,1,1,1
2025-10-24 15:50:40.086,0,0,0,6,1,1,2,0,1,0,1,1,1,1,1,1,0,0,0,0,1,0,1,0,1,0,1,1,1,1,0,0
2025-10-24 15:50:41.108,0,0,1,6,1,1,1,0,0,1,1,1,1,0,1,1,1,0,1,1,1,0,1,0,1,1,1,1,1,0,1,0
2025-10-24 15:50:42.066,0,1,0,6,1,2,1,1,1,1,1,1,0,0,0,2,1,1,0,0,1,0,0,1,1,1,1,1,1,0,1,1
2025-10-24 15:50:43.088,0,0,0,7,1,1,1,0,1,0,1,0,1,1,1,1,0,1,0,1,1,1,1,0,1,0,1,0,1,1,1,1
2025-10-24 15:50:44.110,1,1,1,6,1,1,1,1,1,0,0,1,1,1,1,2,1,1,0,1,1,1,1,1,1,0,0,1,1,2,0,1
2025-10-24 15:50:45.069,0,0,1,7,1,1,1,0,1,0,1,0,1,1,1,0,0,0,1,1,1,1,1,0,1,0,1,0,1,1,1,1
2025-10-24 15:50:46.090,0,0,1,7,1,1,1,1,1,0,1,1,1,1,1,1,1,0,1,0,1,1,1,1,1,0,1,1,1,0,1,0
2025-10-24 15:50:47.112,1,0,0,7,1,1,1,1,1,0,0,0,1,1,0,0,1,0,0,0,1,1,1,1,1,0,0,0,1,1,0,1
2025-10-24 15:50:48.070,1,0,0,8,1,1,1,0,0,0,1,0,1,1,0,1,1,0,0,0,1,1,1,0,1,0,1,0,1,0,0,0
2025-10-24 15:50:49.092,1,1,2,7,1,1,0,1,1,0,1,0,0,1,1,1,1,1,1,1,1,1,0,1,1,0,1,0,0,0,0,0
2025-10-24 15:50:50.113,2,1,2,8,0,1,0,0,0,0,1,1,0,0,1,2,1,1,1,1,0,1,0,0,1,0,1,1,0,1,1,0
2025-10-24 15:50:51.072,1,0,1,7,0,1,0,0,0,1,1,0,0,1,1,1,1,1,1,0,0,1,0,0,0,1,1,0,0,1,1,1
2025-10-24 15:50:52.094,2,2,1,8,1,1,0,1,0,2,1,1,1,1,1,1,1,0,1,1,1,1,0,2,1,1,1,1,0,1,1,0
2025-10-24 15:50:53.116,0,1,1,7,1,0,1,1,1,1,2,0,1,0,1,2,1,1,1,0,1,0,1,1,1,1,1,0,2,1,1,0
2025-10-24 15:50:54.074,1,1,1,7,1,0,1,1,1,1,2,0,1,0,1,1,1,1,1,0,1,0,1,1,1,1,1,0,1,1,1,1
2025-10-24 15:50:55.097,0,1,0,5,1,1,1,1,1,1,1,1,1,1,1,2,1,1,0,1,1,1,1,1,1,1,2,1,2,1,1,0
2025-10-24 15:50:56.055,0,0,0,6,1,2,1,1,1,0,2,1,0,1,1,0,1,1,0,0,1,1,1,1,1,0,2,1,1,1,1,1
2025-10-24 15:50:57.076,0,0,1,4,1,1,1,0,1,0,1,0,1,1,1,1,1,0,1,1,1,1,1,0,1,0,1,0,1,0,1,0
2025-10-24 15:50:58.098,0,0,0,4,1,1,1,1,0,0,1,0,1,1,1,1,1,0,0,0,1,1,1,1,1,0,1,0,1,1,1,0
2025-10-24 15:50:59.056,0,0,0,5,1,1,1,0,1,0,0,1,1,1,1,1,1,0,0,0,1,1,1,0,1,0,0,1,1,0,1,0
2025-10-24 15:51:00.077,0,0,0,4,1,0,1,1,0,0,0,1,1,0,1,0,1,0,0,1,1,0,1,1,1,0,0,1,1,0,1,0
2025-10-24 15:51:01.100,1,2,2,7,0,0,0,1,0,1,1,1,1,0,0,1,1,1,0,1,0,0,0,1,1,1,1,1,1,1,0,0
2025-10-24 15:51:02.058,1,1,1,7,1,1,0,1,1,1,1,0,0,1,0,2,1,1,1,1,1,0,0,1,1,1,1,0,0,1,1,0
2025-10-24 15:51:03.080,0,0,2,6,0,0,1,0,0,1,1,0,0,1,1,1,1,1,1,0,0,0,1,0,1,1,1,0,0,1,1,1
2025-10-24 15:51:04.102,0,2,1,7,0,0,0,1,0,0,1,1,1,1,1,2,1,1,1,1,0,0,0,1,1,0,1,1,0,1,1,0
2025-10-24 15:51:05.060,1,1,1,7,0,0,0,1,0,0,1,1,1,1,1,2,1,1,0,1,1,0,0,1,1,0,1,1,1,1,1,0
2025-10-24 15:51:06.082,0,1,1,8,0,1,1,1,1,0,1,1,1,1,1,1,1,1,1,1,1,1,1,1,1,0,1,1,1,1,1,0
2025-10-24 15:51:07.104,0,1,1,7,1,1,1,1,1,1,1,1,1,0,1,1,1,0,1,0,1,1,1,1,1,1,1,1,1,1,1,1
2025-10-24 15:51:08.062,2,1,1,7,1,0,1,1,1,1,1,1,1,0,1,1,1,1,1,1,1,0,1,1,1,1,1,1,2,0,1,0
2025-10-24 15:51:09.084,1,1,1,7,2,1,1,1,2,1,1,1,1,1,1,1,1,2,1,1,1,1,1,1,0,1,1,1,2,1,1,1
2025-10-24 15:51:10.106,0,1,0,5,2,1,1,1,1,1,1,0,0,1,1,2,1,1,0,1,1,1,1,1,1,1,1,0,0,1,1,0
2025-10-24 15:51:11.065,0,0,1,6,2,1,1,1,1,0,1,0,1,1,1,1,2,0,1,1,1,1,1,0,1,1,1,1,1,1,1,1
2025-10-24 15:51:12.087,0,1,0,5,1,1,1,1,1,1,1,1,1,1,1,2,1,1,0,0,1,1,1,1,1,1,1,1,1,1,1,1
2025-10-24 15:51:13.108,0,0,0,5,1,1,1,0,0,0,1,0,1,0,0,1,1,0,0,0,1,1,1,0,1,0,1,1,1,1,0,0
2025-10-24 15:51:14.067,0,1,1,5,1,2,1,1,1,1,1,1,1,1,1,1,1,1,1,0,1,1,1,1,1,1,1,0,1,1,1,1
2025-10-24 15:51:15.089,0,1,0,4,1,1,1,1,0,1,1,1,1,1,0,2,1,1,1,1,1,1,1,1,0,1,1,1,1,1,0,1
2025-10-24 15:51:16.111,0,1,1,6,1,1,1,0,0,1,1,1,1,1,1,2,1,1,1,1,1,1,1,0,1,1,1,1,1,1,1,1
2025-10-24 15:51:17.069,0,0,0,6,1,1,1,0,1,1,1,1,1,0,0,1,1,0,0,1,1,1,0,0,1,1,1,1,1,1,0,0
2025-10-24 15:51:18.091,0,0,0,5,1,1,1,1,1,0,1,1,1,1,1,1,1,0,0,0,1,1,1,1,1,0,1,1,1,1,1,0
2025-10-24 15:51:19.112,1,0,0,7,1,1,1,0,0,0,1,0,1,1,0,1,1,0,0,0,1,1,1,0,1,0,1,0,1,0,0,0
2025-10-24 15:51:20.071,0,1,0,6,1,1,0,0,1,1,0,0,1,1,0,1,0,1,1,1,1,1,1,0,1,1,1,0,1,1,1,1
2025-10-24 15:51:21.092,0,0,1,5,0,1,1,1,0,0,1,0,0,0,0,1,1,0,0,1,0,1,1,1,0,0,1,0,0,1,0,0
2025-10-24 15:51:22.114,0,0,1,6,1,1,1,1,1,0,0,0,1,1,0,1,0,0,1,1,1,1,1,1,1,0,0,0,1,1,1,0
2025-10-24 15:51:23.073,0,1,0,5,1,1,1,0,0,0,1,1,1,0,1,2,1,1,0,0,1,1,1,0,1,0,1,1,1,0,0,1
2025-10-24 15:51:24.094,0,0,0,6,1,1,1,1,0,0,0,1,1,1,1,1,1,0,0,1,1,1,1,1,1,0,0,1,1,1,0,0
2025-10-24 15:51:25.116,0,0,1,6,1,1,0,1,1,0,0,0,0,1,1,1,0,1,1,0,1,1,0,1,1,0,0,0,0,1,1,1
2025-10-24 15:51:26.074,0,0,0,5,0,1,1,1,0,0,0,0,0,1,0,1,1,0,0,1,0,1,1,1,1,0,0,0,0,1,1,0
2025-10-24 15:51:27.095,0,0,1,7,0,1,1,1,0,0,0,1,0,1,0,1,0,1,0,0,0,0,1,1,1,0,0,1,0,2,1,1
2025-10-24 15:51:28.054,0,1,0,5,1,1,1,0,1,0,0,1,1,0,1,2,1,1,0,0,1,1,1,0,1,0,0,1,1,0,0,0
2025-10-24 15:51:29.076,0,0,1,4,1,0,1,1,1,0,0,1,1,0,0,1,1,0,0,1,1,0,1,1,1,0,0,1,1,1,1,0
2025-10-24 15:51:30.098,1,1,1,7,1,1,0,1,1,1,1,0,0,1,1,2,1,1,1,1,1,0,0,1,1,1,1,0,0,1,1,1
2025-10-24 15:51:31.056,0,0,0,7,1,1,1,1,1,0,0,0,1,0,0,1,1,0,0,0,1,1,1,1,1,0,0,0,1,0,0,0
2025-10-24 15:51:32.078,1,1,1,6,0,1,0,1,0,1,1,0,0,1,1,2,1,1,1,1,0,1,0,1,1,1,1,0,0,1,1,0
2025-10-24 15:51:33.100,1,0,1,7,0,0,0,0,1,0,1,1,1,1,1,1,1,0,1,0,0,0,0,0,1,0,1,1,1,1,1,1
2025-10-24 15:51:34.058,1,0,0,7,1,1,1,1,1,0,0,0,1,1,0,1,1,0,0,0,1,1,1,1,1,0,0,0,1,1,0,1
2025-10-24 15:51:35.080,0,0,1,5,0,1,0,1,1,0,1,0,0,1,0,1,1,1,0,0,0,1,0,1,1,0,1,0,0,1,1,0
2025-10-24 15:51:36.102,1,1,2,6,0,1,0,0,1,0,0,1,1,1,1,2,1,1,1,1,0,1,0,0,1,0,0,1,1,1,0,0
2025-10-24 15:51:37.060,0,1,2,6,0,1,0,1,0,0,1,0,0,1,0,1,1,0,1,0,0,1,0,1,1,0,1,0,0,0,0,1
2025-10-24 15:51:38.081,1,1,1,6,0,1,0,1,0,1,0,0,0,1,1,2,1,1,1,1,0,1,0,1,0,1,0,0,0,0,1,0
2025-10-24 15:51:39.103,1,2,2,7,0,1,0,1,1,1,0,0,0,0,1,1,1,2,1,0,0,1,0,1,1,1,0,0,0,0,0,1
2025-10-24 15:51:40.061,0,0,1,6,1,1,1,1,1,0,0,0,0,1,0,1,1,1,1,0,1,1,1,1,1,0,0,0,0,1,1,1
2025-10-24 15:51:41.083,1,2,2,7,0,0,0,1,1,1,0,0,1,0,1,2,1,1,1,0,0,0,0,1,1,1,0,0,1,1,0,0
2025-10-24 15:51:42.105,0,1,2,6,0,1,1,1,0,1,1,0,1,1,1,2,1,1,1,0,0,1,1,1,1,1,1,0,0,1,1,0
2025-10-24 15:51:43.085,0,1,1,3,1,1,1,1,1,0,1,1,1,0,1,2,1,1,1,1,1,1,1,1,1,0,1,1,1,1,1,1
2025-10-24 15:51:44.107,0,1,1,3,0,0,1,1,1,1,1,1,0,1,1,1,1,1,1,1,0,0,1,1,1,1,1,1,0,1,1,0
2025-10-24 15:51:45.066,0,0,2,5,0,1,1,0,0,0,1,1,0,1,1,0,1,1,1,0,0,1,1,0,1,0,1,1,1,1,0,1
2025-10-24 15:51:46.088,0,1,1,7,0,0,1,0,0,0,1,1,1,1,1,1,0,1,1,1,1,0,1,1,1,1,1,1,1,1,1,0
2025-10-24 15:51:47.109,0,1,1,5,0,1,0,1,0,1,1,1,1,1,1,2,1,1,1,1,0,1,0,1,1,1,1,1,1,1,1,0
2025-10-24 15:51:48.067,0,1,1,7,0,0,1,1,0,0,1,1,1,1,0,2,1,1,0,1,0,0,1,1,1,0,1,1,1,0,1,1
2025-10-24 15:51:49.089,0,1,1,6,0,0,1,1,1,0,1,0,1,1,1,1,1,0,1,1,0,0,1,1,1,0,1,0,1,2,1,1
2025-10-24 15:51:50.111,1,1,1,7,0,1,1,1,1,1,1,1,1,1,1,2,1,1,1,2,0,1,1,1,1,1,1,1,0,1,1,0
2025-10-24 15:51:51.069,1,1,1,7,0,0,0,1,0,0,1,1,1,1,1,2,1,1,0,1,1,0,0,1,1,0,1,1,1,1,1,0
2025-10-24 15:51:52.090,1,1,1,7,1,0,0,1,1,1,1,1,0,1,1,2,1,1,1,1,0,0,0,1,1,1,1,1,1,1,1,0
2025-10-24 15:51:53.112,1,1,1,7,1,0,1,0,1,0,1,1,1,1,1,2,1,1,1,2,1,0,1,0,1,0,1,0,1,1,1,1
2025-10-24 15:51:54.070,2,1,1,8,0,0,1,0,0,1,1,1,1,1,1,2,1,1,1,0,1,0,1,0,0,1,1,1,1,0,1,0
2025-10-24 15:51:55.092,2,1,1,8,1,1,1,0,1,0,1,1,0,1,1,0,1,1,1,1,0,1,1,1,1,1,1,1,1,1,1,0
2025-10-24 15:51:56.114,1,1,1,7,1,1,1,1,1,1,1,1,1,1,1,1,1,1,1,1,1,1,1,1,1,1,1,1,0,1,1,0
2025-10-24 15:51:57.072,0,1,1,6,0,1,1,0,0,1,1,0,1,1,1,2,0,1,0,0,1,1,1,0,1,1,1,0,1,0,1,0
2025-10-24 15:51:58.098,-39,21,12,29,19,4,17,10,7,4,5,6,9,10,4,6,5,6,7,2,4,6,5,3,2,4,3,8,5,2,4,2
2025-10-24 15:51:59.059,-20,16,9,12,17,12,5,4,9,7,7,5,2,5,7,8,5,3,3,4,7,7,3,3,5,5,3,3,2,1,3,3
2025-10-24 15:52:00.082,1,1,1,7,1,0,1,1,1,1,1,1,1,0,1,2,1,1,1,1,1,1,1,1,1,1,1,0,1,0,1,0
2025-10-24 15:52:01.104,0,0,0,5,2,0,0,1,1,0,0,0,1,0,0,1,1,1,0,1,1,0,1,1,1,0,1,1,1,1,0,1
2025-10-24 15:52:02.062,1,1,1,5,1,0,1,1,1,1,1,1,1,0,1,2,1,1,1,1,1,1,1,1,1,1,1,0,1,1,1,0
2025-10-24 15:52:03.084,2,1,1,6,1,1,1,0,1,1,1,1,1,1,1,2,2,1,1,1,1,1,1,0,1,1,1,1,1,1,1,0
2025-10-24 15:52:04.106,0,0,1,6,1,1,1,1,1,0,1,1,1,1,1,1,1,0,1,1,1,1,1,1,1,0,1,1,0,0,1,0
2025-10-24 15:52:05.065,2,1,1,6,1,1,1,1,1,1,1,1,1,0,1,1,1,1,1,1,1,1,1,1,1,1,1,1,1,1,1,0
2025-10-24 15:52:06.087,0,1,1,6,1,1,1,1,1,1,1,1,1,1,1,2,1,1,1,1,1,1,1,1,1,1,1,1,1,1,1,1
2025-10-24 15:52:07.109,0,1,1,5,1,1,1,1,1,1,1,1,1,1,1,2,1,1,1,1,1,1,1,1,1,1,1,1,2,0,1,0
2025-10-24 15:52:08.067,0,1,1,5,1,1,1,1,1,1,1,1,1,1,1,1,1,1,1,0,0,1,1,1,1,1,1,1,1,1,1,0
2025-10-24 15:52:09.088,0,1,1,5,1,0,1,1,0,1,1,0,1,0,1,2,1,1,1,1,1,0,1,1,1,1,1,0,1,1,1,0
2025-10-24 15:52:10.110,0,1,1,5,1,1,1,1,1,1,1,1,1,0,1,2,1,1,1,0,1,1,1,1,1,1,1,1,1,1,1,1
2025-10-24 15:52:11.068,0,1,1,5,1,1,1,1,1,1,1,0,0,1,1,2,1,1,1,1,1,1,1,1,1,1,1,1,1,1,1,0
2025-10-24 15:52:12.090,0,1,1,5,1,1,1,1,1,0,1,1,1,0,1,2,1,1,1,1,1,1,1,1,1,0,1,1,2,0,1,0
2025-10-24 15:52:13.111,0,0,1,5,1,1,1,1,1,0,1,1,1,0,1,0,1,1,1,0,1,1,1,1,1,0,1,0,2,1,1,1
2025-10-24 15:52:14.070,1,1,1,6,1,1,1,0,1,1,1,1,1,0,1,2,1,1,1,1,1,1,1,0,1,1,1,1,1,0,1,0
2025-10-24 15:52:15.092,0,0,1,5,1,1,1,1,1,0,1,1,1,0,1,0,1,1,1,1,1,1,1,1,1,0,1,0,1,1,1,1
2025-10-24 15:52:16.114,0,1,1,5,1,1,1,1,1,1,1,1,0,1,1,2,1,1,1,1,0,1,1,1,1,1,1,1,1,1,1,0
2025-10-24 15:52:17.072,0,0,1,4,1,1,1,1,1,0,1,1,1,1,1,1,1,0,1,1,1,1,1,1,1,0,1,1,2,1,1,0
2025-10-24 15:52:18.094,0,0,0,5,1,1,1,1,1,0,1,1,0,0,1,1,1,1,0,1,0,1,1,1,1,0,1,1,1,1,0,1
2025-10-24 15:52:19.052,0,0,1,4,2,2,1,1,1,0,1,0,1,1,1,0,1,1,1,0,1,1,1,1,1,0,1,1,1,1,1,1
2025-10-24 15:52:20.074,0,0,1,3,1,1,1,0,1,0,1,1,0,1,1,1,1,1,1,1,0,1,1,0,1,0,1,1,1,1,1,1
2025-10-24 15:52:21.096,0,1,0,4,2,1,0,1,1,1,0,1,1,1,0,2,1,1,1,1,1,1,1,1,1,1,1,1,1,1,1,1
2025-10-24 15:52:22.054,0,0,0,3,1,1,1,0,1,0,1,1,0,0,1,1,1,1,0,1,1,1,2,0,1,0,1,1,1,1,1,1
2025-10-24 15:52:23.076,0,1,0,2,2,1,0,1,1,1,0,1,1,1,0,1,1,1,0,1,1,1,0,1,1,1,0,1,0,0,1,1
2025-10-24 15:52:24.098,0,0,1,3,1,0,1,0,1,0,1,0,1,1,1,1,1,0,1,1,1,0,1,0,1,0,1,0,1,1,1,1
2025-10-24 15:52:25.057,0,1,1,4,2,1,1,1,1,1,1,1,1,1,1,1,1,1,1,0,1,1,1,1,1,1,1,1,0,1,1,1
2025-10-24 15:52:26.079,0,0,1,4,1,0,1,1,1,0,1,1,0,1,1,1,1,0,1,1,1,0,1,1,1,0,1,1,1,1,1,0
2025-10-24 15:52:27.100,0,1,1,4,1,1,1,1,1,1,1,1,1,1,1,2,1,1,1,1,1,1,1,1,1,1,1,1,1,2,1,0
2025-10-24 15:52:28.059,0,1,0,3,1,1,1,1,1,1,0,1,0,1,1,2,1,2,0,0,1,1,1,1,1,1,0,1,1,1,1,1
2025-10-24 15:52:29.081,0,1,1,2,1,1,1,0,1,1,1,0,1,1,1,1,1,1,1,0,1,1,2,0,1,1,1,0,1,0,1,1
2025-10-24 15:52:30.103,0,0,0,2,1,1,1,1,0,0,1,1,1,1,1,1,1,0,0,1,1,1,1,1,1,0,1,1,1,0,1,0
2025-10-24 15:52:31.062,0,1,1,3,1,1,1,1,1,1,1,1,0,1,1,2,1,1,1,1,1,1,2,1,1,1,1,1,1,1,1,1
2025-10-24 15:52:32.083,2,1,0,6,1,1,1,0,1,1,0,1,1,1,0,2,1,1,1,1,1,1,1,0,1,1,0,1,1,1,1,1
2025-10-24 15:52:33.105,0,0,0,5,0,0,1,1,0,0,0,1,0,0,0,0,1,0,0,1,0,0,1,1,0,0,0,1,0,0,1,0
2025-10-24 15:52:34.063,0,0,1,4,1,1,1,1,1,0,1,0,1,1,1,1,1,0,1,1,1,1,1,1,1,0,1,0,1,0,1,0
2025-10-24 15:52:35.085,0,0,1,5,1,0,1,1,1,0,1,1,1,1,1,1,1,0,1,1,1,0,1,1,1,0,1,1,1,0,1,0
2025-10-24 15:52:36.106,0,0,1,4,0,0,0,1,1,0,1,0,0,0,0,1,1,0,0,1,0,0,0,1,1,0,1,0,0,1,1,0
2025-10-24 15:52:37.064,0,0,0,4,0,1,1,1,1,0,0,0,0,1,1,1,1,0,0,0,0,1,1,1,1,0,0,0,0,1,1,0
2025-10-24 15:52:38.086,0,1,0,4,1,0,1,1,1,1,0,1,1,0,1,1,1,1,0,1,1,0,1,1,1,1,0,1,1,0,0,0
2025-10-24 15:52:39.108,0,0,1,5,1,1,0,1,0,0,1,0,1,1,1,1,1,0,1,0,1,1,0,1,1,0,1,0,1,1,1,0
2025-10-24 15:52:40.066,0,1,1,4,0,1,0,1,1,1,1,1,0,1,1,2,0,1,1,0,0,1,0,1,1,1,1,1,0,1,1,0
2025-10-24 15:52:41.088,0,2,1,5,0,1,1,1,1,1,0,0,0,1,1,1,1,1,0,1,0,1,1,1,1,1,0,0,0,1,1,0
2025-10-24 15:52:42.110,0,1,1,6,0,1,0,0,0,0,1,0,1,1,1,2,1,1,1,0,0,1,0,0,1,0,1,0,1,0,1,0
2025-10-24 15:52:43.068,0,1,2,5,0,1,0,1,0,0,1,0,0,1,0,1,1,1,0,0,0,1,0,1,1,0,1,0,0,0,1,0
2025-10-24 15:52:44.090,0,1,1,5,0,1,1,1,1,0,1,1,0,0,1,2,1,1,1,1,0,1,1,1,1,0,1,1,0,1,1,0
2025-10-24 15:52:45.111,1,1,1,6,1,0,1,1,1,1,1,0,1,1,1,2,1,1,1,1,1,0,1,1,1,1,1,0,2,0,1,0
2025-10-24 15:52:46.069,1,2,1,6,0,0,0,0,1,1,1,1,1,1,1,1,1,2,1,1,1,0,0,1,1,0,1,1,1,2,1,1
2025-10-24 15:52:47.092,1,1,1,7,1,1,1,1,1,1,1,1,1,1,1,2,1,1,1,0,1,1,1,1,1,1,1,1,0,1,1,1
2025-10-24 15:52:48.114,0,1,1,5,2,1,1,1,0,1,1,1,1,1,1,1,0,1,1,0,1,1,1,1,1,1,1,1,0,2,1,1
2025-10-24 15:52:49.072,0,1,1,5,1,1,1,1,1,1,1,1,0,1,1,2,1,1,1,1,0,1,1,1,1,1,1,1,1,1,1,1
2025-10-24 15:52:50.093,0,1,1,5,1,1,1,1,1,1,1,1,0,1,1,2,1,1,1,1,0,1,1,1,1,1,1,1,1,1,1,1
2025-10-24 15:52:51.073,0,1,0,5,1,1,1,1,1,1,1,1,0,1,1,2,1,1,0,1,0,1,1,1,1,1,1,1,1,0,1,0
2025-10-24 15:52:52.095,0,0,0,4,1,1,0,1,1,1,0,1,0,1,0,0,1,1,0,1,1,1,0,1,1,1,0,1,1,1,0,1
2025-10-24 15:52:53.053,0,1,0,5,2,1,0,1,1,1,0,1,1,1,0,2,1,1,0,0,1,1,1,1,1,1,1,1,0,1,0,0
2025-10-24 15:52:54.075,0,0,0,5,1,0,1,1,1,0,1,1,1,1,1,1,0,0,0,0,1,0,1,1,1,0,1,1,1,2,1,0
2025-10-24 15:52:55.096,0,0,0,5,1,1,1,1,1,0,1,1,1,1,1,1,1,0,0,0,1,1,1,1,1,0,1,1,1,1,1,0
2025-10-24 15:52:56.055,0,0,0,2,1,1,1,1,1,0,1,1,1,0,1,1,1,0,0,1,1,1,1,1,1,0,1,1,1,1,1,0
2025-10-24 15:52:57.076,0,0,0,4,1,0,1,1,0,0,0,1,1,0,1,1,1,1,0,1,1,0,1,1,1,0,0,1,1,0,1,1
2025-10-24 15:52:58.098,0,1,1,5,0,1,1,1,1,1,0,1,0,1,1,1,1,1,0,1,0,1,1,1,1,1,0,1,0,2,1,0
2025-10-24 15:52:59.057,0,1,2,4,1,1,1,1,1,1,1,1,1,0,1,2,1,1,1,1,1,1,1,1,1,1,1,1,1,1,1,1
2025-10-24 15:53:00.078,0,1,1,5,0,0,1,0,0,0,1,0,0,0,1,2,0,1,0,1,0,0,1,0,1,0,1,0,0,1,1,0
2025-10-24 15:53:01.100,0,1,2,7,0,0,0,1,1,1,1,1,1,1,1,1,1,2,1,1,1,0,1,1,1,1,1,1,1,1,1,0
2025-10-24 15:53:02.059,0,2,1,7,0,1,0,1,1,1,1,1,1,0,1,2,1,1,1,1,0,1,0,1,1,1,1,1,1,1,1,0
2025-10-24 15:53:03.081,0,1,1,6,0,0,1,1,1,1,1,0,1,1,1,2,1,1,1,1,1,0,1,1,1,1,1,0,1,1,1,1
2025-10-24 15:53:04.102,0,0,1,6,1,1,1,0,1,0,1,1,1,0,1,1,1,1,1,1,1,1,1,1,1,1,1,1,1,0,1,1
2025-10-24 15:53:05.061,0,0,1,7,2,1,0,1,0,0,1,1,0,1,1,1,1,0,1,1,0,1,1,1,1,0,0,1,1,0,1,0
2025-10-24 15:53:06.083,0,1,1,5,2,1,1,1,1,1,1,1,1,1,1,2,1,1,1,1,1,1,1,1,1,1,1,1,0,1,1,0
2025-10-24 15:53:07.104,0,0,0,4,1,1,1,1,1,0,0,1,0,1,1,1,1,1,0,1,1,0,1,1,1,0,0,0,1,0,0,1
2025-10-24 15:53:08.063,0,1,1,4,2,1,1,1,1,1,1,1,1,1,1,1,1,1,1,0,1,1,1,1,1,1,1,1,0,1,1,1
2025-10-24 15:53:09.085,0,1,0,5,0,2,1,1,1,1,1,1,1,1,1,1,1,1,0,1,1,1,1,0,1,1,1,1,1,1,0,0
2025-10-24 15:53:10.107,0,0,0,3,1,1,1,1,0,0,1,1,1,1,0,1,1,0,0,1,1,1,1,1,0,0,1,1,1,1,1,0
2025-10-24 15:53:11.065,0,1,1,4,1,1,1,0,1,1,1,1,1,1,1,1,1,0,1,1,1,1,1,1,1,1,1,1,1,1,1,1
2025-10-24 15:53:12.087,0,0,0,4,1,1,1,1,1,0,1,0,1,1,0,0,1,1,0,1,1,0,1,1,1,0,1,0,1,0,1,1
2025-10-24 15:53:13.108,0,0,0,4,0,0,1,1,1,0,0,1,0,1,1,1,0,1,0,1,0,0,1,1,1,0,0,1,0,1,0,1
2025-10-24 15:53:14.066,0,0,0,4,1,1,1,1,0,0,1,1,1,0,0,0,1,0,1,1,1,1,1,1,1,0,1,1,1,0,1,0
2025-10-24 15:53:15.088,0,1,0,6,0,1,1,1,1,1,0,0,0,1,1,2,1,1,0,0,0,1,1,1,1,1,0,0,0,1,0,0
2025-10-24 15:53:16.110,1,1,1,5,1,0,1,1,1,1,1,1,1,0,1,1,1,1,0,1,1,0,1,1,1,1,1,1,1,1,1,0
2025-10-24 15:53:17.068,0,1,1,5,0,1,0,0,1,0,0,0,0,1,0,1,1,1,0,1,0,1,0,0,1,0,0,0,0,1,1,0
2025-10-24 15:53:18.090,4,0,2,11,0,1,0,0,1,0,1,0,0,0,1,1,1,1,1,0,0,1,1,0,1,0,1,0,0,1,1,1
2025-10-24 15:53:19.112,2,2,2,9,0,1,1,0,0,1,1,1,1,0,1,1,1,1,0,1,1,1,1,0,0,1,1,1,1,1,1,0
2025-10-24 15:53:20.070,2,2,1,9,0,0,0,1,0,1,1,1,0,0,1,0,1,0,1,1,0,0,0,0,0,0,1,1,0,0,1,0
2025-10-24 15:53:21.092,2,1,1,10,0,0,1,1,0,0,1,1,1,0,0,2,1,1,0,1,1,0,1,1,1,0,1,1,1,1,1,0
2025-10-24 15:53:22.114,3,2,2,9,1,1,1,1,1,1,1,1,1,1,1,2,1,1,1,1,1,1,1,2,1,1,1,1,0,1,2,0
2025-10-24 15:53:23.073,2,2,2,10,1,0,2,0,1,0,1,1,1,0,1,2,1,1,1,0,0,0,1,1,1,0,1,1,0,1,1,0
2025-10-24 15:53:24.095,3,1,1,10,1,2,1,1,1,1,1,1,1,1,1,2,1,1,1,1,1,1,1,1,1,1,1,0,1,1,1,0
2025-10-24 15:53:25.053,2,2,1,10,1,1,1,1,1,1,1,1,1,1,0,1,1,0,0,1,1,1,0,1,1,1,1,1,0,1,1,1
2025-10-24 15:53:26.075,2,1,1,9,2,1,1,1,1,1,0,0,1,1,1,2,1,1,1,0,1,1,1,1,1,1,0,1,2,1,1,0
2025-10-24 15:53:27.097,2,1,1,8,1,2,0,1,1,1,1,1,1,1,1,1,1,1,1,1,1,1,1,1,1,1,1,0,1,1,1,1
2025-10-24 15:53:28.055,2,1,1,7,2,1,1,1,1,1,2,1,1,1,1,2,1,1,1,1,1,1,1,1,1,1,1,0,2,1,1,1
2025-10-24 15:53:29.077,2,1,0,9,1,2,0,1,1,1,0,1,1,1,0,1,1,1,0,1,1,1,1,1,1,1,1,1,1,1,0,1
2025-10-24 15:53:30.099,2,0,0,7,2,2,2,1,1,0,1,1,0,0,0,1,1,0,0,1,1,1,1,1,1,0,1,0,1,0,1,0
2025-10-24 15:53:31.057,2,0,1,8,2,1,0,0,1,0,1,1,0,1,0,0,1,0,1,1,0,0,1,1,1,1,1,1,0,1,0,0
2025-10-24 15:53:32.079,2,1,0,8,2,2,2,1,1,1,1,1,1,1,0,1,1,1,0,1,1,1,1,1,1,1,1,1,0,0,0,1
2025-10-24 15:53:33.101,1,1,0,7,1,1,1,0,1,1,1,1,1,1,0,0,1,1,0,1,1,1,1,0,1,1,1,1,1,2,0,0
2025-10-24 15:53:34.060,2,0,0,8,2,1,2,0,1,1,0,1,0,1,1,1,1,0,0,0,1,1,1,0,1,1,1,1,0,2,0,0
2025-10-24 15:53:35.081,1,0,0,8,1,1,1,1,1,0,1,0,1,0,1,0,1,1,0,0,1,0,1,0,1,0,1,0,1,1,1,0
2025-10-24 15:53:36.103,2,1,0,8,1,1,2,0,1,0,0,1,1,1,1,1,1,1,0,1,1,1,1,0,1,0,0,1,1,1,0,1
2025-10-24 15:53:37.061,1,1,0,7,1,1,3,1,1,1,1,1,1,1,0,2,1,1,0,1,1,1,2,1,1,1,1,1,1,2,1,1
2025-10-24 15:53:38.083,1,0,0,8,1,1,1,1,1,0,0,0,1,1,1,1,1,0,0,2,1,1,1,1,1,0,0,0,1,1,1,0
2025-10-24 15:53:39.105,2,1,2,8,0,0,0,1,1,1,0,1,0,1,1,2,1,1,1,0,0,0,0,1,1,1,0,1,0,0,0,1
2025-10-24 15:53:40.063,0,0,0,8,1,1,1,1,1,0,1,1,1,1,0,1,1,0,1,1,1,1,0,1,1,0,0,1,1,0,0,0
2025-10-24 15:53:41.085,1,0,1,8,0,0,0,0,0,0,0,1,0,1,0,1,1,1,0,1,0,0,0,1,1,0,0,1,0,1,1,1
2025-10-24 15:53:42.106,2,1,2,8,0,0,0,1,0,1,1,0,0,0,1,1,1,1,1,1,0,0,1,1,0,1,1,0,0,1,1,0
2025-10-24 15:53:43.065,2,0,1,9,0,0,0,0,1,0,1,1,0,1,0,1,1,1,0,1,0,0,0,1,1,1,1,1,0,0,1,1
2025-10-24 15:53:44.087,2,2,2,9,0,0,0,1,1,1,0,1,0,1,1,0,1,0,0,1,0,0,1,1,1,1,1,1,0,1,1,0
2025-10-24 15:53:45.109,2,1,1,10,0,1,0,1,0,1,1,1,1,0,1,2,1,1,1,1,1,1,0,0,0,1,1,1,1,1,1,0
2025-10-24 15:53:46.067,3,2,1,10,0,1,0,1,1,0,0,0,0,1,1,1,1,1,0,0,0,1,1,1,1,0,1,0,0,1,1,0
2025-10-24 15:53:47.089,2,1,1,10,0,0,1,1,0,0,1,1,1,0,0,2,0,1,0,1,1,0,1,1,1,0,1,0,1,1,1,0
2025-10-24 15:53:48.110,2,2,1,10,1,1,1,0,1,0,1,1,1,1,0,0,1,0,0,1,1,1,0,1,1,1,1,1,1,0,1,0
2025-10-24 15:53:49.068,2,2,1,10,0,1,1,0,0,1,1,1,1,0,1,1,0,0,0,1,1,1,1,0,1,1,1,1,1,0,1,0
2025-10-24 15:53:50.090,2,2,2,10,1,1,1,1,1,1,1,1,1,1,1,1,1,1,1,1,1,1,1,2,1,1,1,1,1,0,2,0
2025-10-24 15:53:51.113,3,1,1,9,1,0,1,1,1,1,1,1,1,1,1,2,1,1,1,0,1,1,1,1,1,1,1,1,1,2,1,1
2025-10-24 15:53:52.071,2,1,1,9,1,1,1,1,1,1,1,1,1,1,1,1,1,0,1,0,1,1,1,1,1,1,1,1,2,0,1,1
2025-10-24 15:53:53.092,2,1,1,8,1,0,1,1,1,1,1,1,1,1,1,1,1,1,1,1,1,1,1,1,1,1,1,1,1,1,1,1
2025-10-24 15:53:54.051,2,1,1,10,2,1,1,1,1,1,0,1,1,1,1,2,1,1,1,1,1,1,1,1,1,1,0,2,1,1,1,0
2025-10-24 15:53:55.073,2,1,1,8,2,1,0,1,1,1,1,0,1,1,1,2,1,1,1,1,1,1,1,1,1,1,1,1,1,1,1,0
2025-10-24 15:53:56.095,1,1,0,7,2,1,1,1,1,1,1,1,0,1,0,2,1,1,0,1,0,1,1,1,1,1,1,1,0,1,1,1
2025-10-24 15:53:57.054,2,1,1,9,1,1,1,1,1,1,2,1,1,1,1,1,1,1,1,1,1,1,1,1,1,1,1,1,1,1,1,1
2025-10-24 15:53:58.076,1,0,0,7,1,2,1,1,1,0,1,1,0,1,0,1,1,1,0,1,0,1,1,1,1,0,1,0,1,1,1,1
2025-10-24 15:53:59.055,1,1,0,7,2,1,1,1,1,1,1,1,0,1,0,2,1,1,0,1,0,1,1,1,1,1,2,1,0,1,1,1
2025-10-24 15:54:00.077,1,1,0,7,2,1,2,1,1,1,1,0,0,0,1,2,1,1,0,1,0,1,1,1,1,0,1,1,0,1,0,1
2025-10-24 15:54:01.099,2,0,0,8,1,1,2,1,1,1,1,1,0,0,0,1,1,0,0,1,1,1,0,1,1,1,1,1,1,1,0,0
2025-10-24 15:54:02.057,2,0,0,7,2,2,1,1,1,0,1,1,0,1,0,1,1,1,0,1,0,1,1,1,1,0,2,2,0,1,1,1
2025-10-24 15:54:03.079,2,1,0,7,2,2,2,1,1,1,1,1,0,0,0,1,1,1,0,0,0,1,1,1,1,1,1,1,1,0,0,1
2025-10-24 15:54:04.100,2,1,0,7,2,1,2,1,1,1,1,1,0,1,1,1,1,1,0,0,1,1,0,1,1,1,1,1,0,1,0,1
2025-10-24 15:54:05.059,2,0,1,8,2,1,1,1,1,0,1,1,1,1,1,0,1,0,1,1,1,0,1,1,1,0,2,0,0,1,1,0
2025-10-24 15:54:06.080,1,0,0,8,1,1,2,1,1,0,1,1,0,1,0,1,1,1,0,1,0,1,1,1,1,0,1,1,1,1,1,1
2025-10-24 15:54:07.102,2,0,0,8,2,1,2,0,1,0,0,1,0,1,1,0,1,1,0,0,1,1,0,0,1,0,1,1,0,1,0,1
2025-10-24 15:54:08.060,2,0,0,8,2,2,1,1,1,0,1,1,1,1,1,0,1,0,0,1,1,1,1,1,1,0,1,1,0,1,1,0
2025-10-24 15:54:09.082,2,0,0,7,2,2,1,0,1,0,1,0,0,1,1,1,1,1,0,1,0,1,1,1,1,0,2,1,0,1,0,1
2025-10-24 15:54:10.103,2,1,0,7,2,2,2,1,1,1,1,1,0,1,1,1,1,1,0,1,1,1,1,1,1,1,0,0,0,1,1,1
2025-10-24 15:54:11.062,2,0,1,8,2,1,0,1,1,0,0,1,1,1,0,1,1,0,1,1,1,0,1,1,1,0,1,0,1,1,0,0
2025-10-24 15:54:12.083,1,0,0,8,1,1,2,1,1,0,1,1,0,1,0,1,1,0,0,1,0,1,1,1,1,0,1,1,1,1,1,0
2025-10-24 15:54:13.105,1,1,0,7,1,1,2,1,1,1,1,1,0,1,0,1,1,2,0,0,1,1,0,1,1,1,1,1,1,0,0,1
2025-10-24 15:54:14.064,1,0,0,7,2,1,1,1,1,0,1,1,0,1,1,1,1,1,0,1,0,1,1,1,1,0,1,1,0,1,1,1
2025-10-24 15:54:15.086,2,1,0,8,2,1,2,1,1,1,1,1,1,1,1,2,1,1,1,0,1,1,1,1,1,1,1,1,0,2,0,0
2025-10-24 15:54:16.107,2,1,0,8,1,1,1,1,1,1,1,0,1,1,0,2,1,2,0,1,1,1,1,1,1,1,1,1,1,1,1,1
2025-10-24 15:54:17.066,1,0,0,8,3,1,2,0,1,0,1,0,1,1,1,1,1,0,0,0,1,1,0,0,1,0,1,1,1,1,0,0
2025-10-24 15:54:18.087,2,0,0,8,1,1,1,0,1,0,1,0,1,1,1,0,1,0,0,0,1,1,1,0,1,0,1,0,1,1,1,1
2025-10-24 15:54:19.109,1,1,0,8,1,1,1,0,1,0,0,1,1,1,1,2,1,1,0,1,1,1,1,0,1,0,0,1,1,1,0,1
2025-10-24 15:54:20.067,2,0,0,7,1,1,1,0,1,0,1,0,1,1,1,1,1,0,0,0,1,1,1,0,1,0,1,0,1,1,1,1
2025-10-24 15:54:21.089,2,1,0,8,1,1,1,0,1,1,1,1,1,1,0,1,1,1,1,1,1,1,0,0,1,1,0,1,1,0,0,1
2025-10-24 15:54:22.111,1,1,0,9,0,0,0,1,1,1,0,1,0,1,0,2,1,1,0,0,0,0,0,1,1,1,0,1,0,1,0,1
2025-10-24 15:54:23.069,1,0,0,8,1,1,1,1,1,0,1,1,1,1,0,1,1,0,1,1,1,1,0,1,1,0,0,1,1,1,0,0
2025-10-24 15:54:24.091,2,1,1,9,0,0,0,1,1,1,0,1,0,0,0,2,1,1,0,0,0,0,0,1,1,1,0,1,0,1,1,0
2025-10-24 15:54:25.050,1,0,0,8,1,1,1,1,1,0,1,1,1,1,0,1,1,0,0,1,1,1,0,1,1,0,0,1,1,1,0,0
2025-10-24 15:54:26.071,1,0,1,9,0,0,0,1,0,0,1,1,0,1,0,1,1,1,0,1,0,0,0,1,0,0,1,1,0,0,1,1
2025-10-24 15:54:27.093,2,1,2,9,0,0,0,1,1,1,1,0,0,1,0,1,1,1,0,1,0,0,0,1,1,1,1,0,0,0,1,1
2025-10-24 15:54:28.051,1,0,1,9,1,0,0,0,0,0,1,0,0,1,0,1,1,1,1,1,1,0,0,1,1,0,1,0,0,1,1,1
2025-10-24 15:54:29.073,2,2,2,8,0,0,0,1,1,1,1,0,0,0,0,1,1,0,0,1,0,0,0,1,1,1,1,0,0,1,1,0
2025-10-24 15:54:30.095,2,2,1,10,0,1,0,1,0,0,1,1,1,0,1,2,1,1,1,0,0,1,0,1,0,0,1,1,0,1,1,0
2025-10-24 15:54:31.053,2,0,2,8,0,0,0,1,0,0,0,1,0,1,1,0,1,0,0,1,0,0,1,1,0,0,1,1,0,1,1,1
2025-10-24 15:54:32.075,2,1,1,10,0,1,1,0,0,1,1,1,1,0,0,2,1,1,0,1,1,1,1,0,1,1,1,1,1,1,1,0
2025-10-24 15:54:33.097,2,1,1,10,1,0,1,1,1,1,1,1,1,0,1,1,1,1,1,1,1,0,1,1,1,2,1,1,1,1,1,0
2025-10-24 15:54:34.055,2,1,2,10,1,0,2,0,0,1,1,0,1,1,1,2,1,1,1,0,1,0,1,0,1,1,1,0,0,1,1,0
2025-10-24 15:54:35.077,2,1,1,10,1,2,1,1,2,1,1,1,1,1,1,1,1,1,1,1,1,1,1,1,0,1,1,0,1,1,1,0
2025-10-24 15:54:36.099,1,1,1,9,1,0,1,1,1,1,2,1,1,1,1,1,1,1,1,1,1,1,1,1,1,1,1,0,1,1,1,1
2025-10-24 15:54:37.057,2,1,1,9,2,1,1,1,1,1,2,0,1,1,1,2,1,1,1,1,1,1,1,1,1,1,1,0,1,1,1,0
2025-10-24 15:54:38.079,1,1,1,8,2,1,1,1,1,1,1,1,0,1,1,2,1,1,1,1,0,1,1,1,1,1,1,0,0,1,1,1
2025-10-24 15:54:39.101,1,0,0,7,1,1,2,1,1,1,2,1,0,1,0,0,1,1,0,0,1,1,1,1,1,0,0,1,1,1,1,0
2025-10-24 15:54:40.059,1,0,0,8,3,1,2,0,1,0,1,1,1,1,1,1,1,1,1,0,1,1,1,0,1,0,1,1,1,1,0,1
2025-10-24 15:54:41.081,2,1,0,7,1,1,2,0,1,1,0,0,1,1,1,1,1,1,0,1,1,1,1,0,1,1,0,0,1,1,0,0
2025-10-24 15:54:42.103,2,2,1,9,1,0,0,1,1,1,0,1,0,1,0,2,1,1,0,1,1,0,0,1,1,1,0,1,0,1,1,0
2025-10-24 15:54:43.061,2,0,0,9,0,0,1,1,1,0,0,1,0,1,0,1,1,0,0,0,0,0,1,1,1,0,0,1,0,1,0,0
2025-10-24 15:54:44.083,2,2,2,9,0,1,0,1,1,1,0,0,0,1,1,1,1,0,0,1,0,1,1,1,1,1,1,0,0,1,1,0
2025-10-24 15:54:45.105,2,1,2,10,1,0,1,0,0,1,1,1,1,0,1,2,1,1,1,1,1,0,1,0,1,1,1,1,0,1,1,0
2025-10-24 15:54:46.063,2,1,1,10,0,1,1,0,0,1,1,1,1,0,0,2,1,1,1,1,1,1,1,0,0,1,1,1,1,1,1,0
2025-10-24 15:54:47.085,2,1,1,11,1,2,1,1,1,0,1,1,1,1,0,1,1,2,0,0,1,1,1,1,1,1,1,1,1,1,1,0
2025-10-24 15:54:48.107,2,1,1,9,2,0,1,1,1,1,1,1,1,0,1,2,1,1,1,0,1,1,1,1,1,1,1,1,2,1,1,1
2025-10-24 15:54:49.065,2,1,1,9,1,0,1,1,1,1,1,0,1,1,1,2,1,1,1,0,1,0,1,1,1,1,1,1,1,1,1,0
2025-10-24 15:54:50.087,2,1,1,9,2,1,1,1,1,1,1,1,1,1,1,0,2,1,1,2,1,1,1,1,1,1,2,1,2,1,1,1
2025-10-24 15:54:51.108,1,0,1,8,2,1,1,0,1,0,1,0,1,1,1,1,1,0,1,0,1,0,1,1,1,1,1,1,0,1,1,0
2025-10-24 15:54:52.067,2,1,1,9,1,1,1,1,1,1,1,1,1,1,1,1,1,1,1,1,1,1,1,1,1,1,1,1,2,1,1,1
2025-10-24 15:54:53.090,1,1,0,8,2,2,2,1,1,1,1,1,0,1,0,1,1,1,0,1,0,1,1,1,1,1,0,0,1,0,1,1
2025-10-24 15:54:54.111,1,0,0,8,1,1,1,0,1,0,1,0,1,0,1,0,1,0,0,0,1,0,1,0,1,0,1,0,1,0,1,1
2025-10-24 15:54:55.069,1,0,0,7,1,1,2,0,1,1,1,0,0,0,1,0,1,1,0,1,1,1,0,0,1,1,1,1,1,1,0,0
2025-10-24 15:54:56.090,1,0,0,8,1,1,2,0,0,1,0,1,1,1,0,1,1,0,0,0,1,1,1,0,1,1,0,1,1,1,0,0
2025-10-24 15:54:57.049,1,0,0,7,1,2,2,0,1,0,1,1,1,0,0,1,1,0,0,1,1,1,1,0,1,0,1,1,1,1,0,0
2025-10-24 15:54:58.070,2,0,0,8,1,1,2,1,1,0,1,1,1,1,0,1,1,0,1,1,1,1,0,0,1,0,0,1,1,1,0,0
2025-10-24 15:54:59.092,2,0,1,8,1,0,0,0,1,0,1,0,0,1,0,1,1,1,1,1,1,0,0,0,1,0,1,0,0,1,1,1
2025-10-24 15:55:00.050,2,0,0,8,1,1,1,1,1,0,1,0,1,1,0,0,1,1,0,1,1,1,0,1,1,0,0,0,1,0,0,1
2025-10-24 15:55:01.071,2,2,2,8,1,0,0,1,1,1,1,1,0,0,0,2,1,1,0,1,1,0,0,1,1,1,1,1,0,1,1,0
2025-10-24 15:55:02.093,3,1,2,9,0,0,0,0,0,0,0,1,0,1,1,1,1,1,0,1,0,0,1,0,1,0,1,1,1,1,1,0
2025-10-24 15:55:03.052,2,2,2,9,0,0,0,1,1,1,0,1,0,0,1,1,1,0,0,1,0,0,1,1,1,1,1,1,0,0,1,0
2025-10-24 15:55:04.074,2,1,1,10,0,1,1,0,0,1,1,1,1,0,0,2,1,1,0,1,1,1,1,0,1,1,1,1,1,1,1,0
2025-10-24 15:55:05.095,2,1,1,10,1,0,1,0,1,0,1,1,1,1,1,1,1,1,1,0,1,0,1,1,1,1,1,1,1,2,1,1
2025-10-24 15:55:06.053,2,1,2,10,1,0,2,0,1,1,1,0,1,1,1,2,1,1,1,0,0,0,1,0,1,1,1,0,0,1,1,0
2025-10-24 15:55:07.097,2,1,1,9,1,1,1,1,1,1,0,1,1,1,1,2,1,1,1,1,1,1,1,1,1,1,0,1,1,2,1,1
2025-10-24 15:55:08.055,2,1,1,9,1,1,1,1,2,1,1,0,1,1,1,2,1,1,1,1,1,1,1,1,0,1,1,1,2,1,1,0
2025-10-24 15:55:09.077,1,0,1,9,1,1,1,1,1,1,2,1,1,1,1,0,1,1,1,1,1,1,1,1,1,1,1,0,2,0,1,1
2025-10-24 15:55:10.099,1,1,0,9,2,1,1,1,1,1,1,1,0,1,0,2,1,1,0,1,1,1,1,1,1,1,1,1,0,1,1,1
2025-10-24 15:55:11.057,1,1,1,9,1,1,1,1,1,1,1,0,1,1,1,1,1,1,1,1,1,1,1,1,1,1,1,1,2,1,1,1
2025-10-24 15:55:12.079,2,0,0,8,2,1,1,1,1,0,1,1,0,1,0,1,1,0,0,1,0,1,1,1,1,0,2,1,0,1,1,0
2025-10-24 15:55:13.101,1,0,1,8,1,1,1,0,1,1,1,1,1,0,0,1,1,0,1,1,1,1,1,0,1,1,1,1,1,1,1,0
2025-10-24 15:55:14.059,1,0,0,8,1,1,2,0,1,1,1,1,0,0,0,0,1,0,0,1,1,1,0,0,1,1,1,1,1,1,1,0
2025-10-24 15:55:15.081,1,0,0,7,1,1,1,1,0,1,1,1,1,1,0,1,1,1,0,1,1,1,1,1,1,1,1,1,1,1,1,1
2025-10-24 15:55:16.102,1,0,0,8,1,1,1,1,1,0,0,0,1,1,0,0,1,1,0,1,1,1,1,1,1,0,0,0,1,0,0,1
2025-10-24 15:55:17.061,1,1,0,7,1,0,1,0,1,1,0,1,1,0,1,1,1,2,0,1,1,0,1,0,1,1,0,1,1,1,0,1
2025-10-24 15:55:18.082,2,0,0,8,1,0,1,1,1,0,0,1,1,1,0,1,1,1,0,0,1,0,1,1,1,0,0,1,1,0,0,1
2025-10-24 15:55:19.105,2,1,2,8,0,1,0,1,1,1,1,0,0,1,1,1,1,1,0,1,0,1,0,1,1,1,1,0,0,1,1,1
2025-10-24 15:55:20.063,1,0,1,9,1,1,0,0,0,0,1,0,0,0,0,1,1,1,1,0,1,1,0,0,1,0,1,0,0,1,1,1
2025-10-24 15:55:21.085,2,0,1,8,0,0,0,1,0,0,0,1,0,1,1,1,1,1,0,1,0,0,1,1,0,0,1,1,0,1,1,1
2025-10-24 15:55:22.107,2,1,1,10,0,0,1,1,0,0,1,1,1,0,0,2,1,1,0,1,1,0,1,1,1,0,1,1,1,1,1,0
2025-10-24 15:55:23.065,2,2,1,10,0,1,0,1,1,0,0,0,0,1,1,0,1,0,0,0,0,1,1,1,1,0,1,0,0,2,1,0
2025-10-24 15:55:24.086,2,1,1,9,0,1,1,0,0,1,1,1,1,0,1,1,1,1,1,1,1,1,1,0,1,1,1,1,1,1,1,0
2025-10-24 15:55:25.108,2,1,1,10,1,0,1,0,1,0,1,1,1,0,1,1,1,1,0,0,1,0,0,1,1,1,1,1,1,1,1,1
2025-10-24 15:55:26.066,2,2,1,9,1,0,1,0,0,1,1,1,1,0,1,1,0,0,1,0,0,0,1,1,1,1,1,1,0,1,1,0
2025-10-24 15:55:27.088,2,1,1,10,2,0,1,1,1,1,1,1,1,0,0,0,1,1,0,0,1,0,0,1,1,1,1,1,1,1,1,0
2025-10-24 15:55:28.110,2,1,1,9,2,0,1,1,1,1,1,0,1,0,1,2,1,1,1,0,2,1,1,1,1,1,1,1,2,1,1,1
2025-10-24 15:55:29.068,2,1,1,10,1,2,1,1,2,1,1,1,1,1,1,1,1,1,1,1,0,1,1,1,0,1,1,0,1,1,1,0
2025-10-24 15:55:30.090,1,1,1,10,1,1,1,1,1,1,2,1,1,1,1,2,1,1,1,0,1,1,1,1,1,1,1,1,1,1,1,0
2025-10-24 15:55:31.048,2,1,1,10,1,0,1,1,1,1,1,0,1,1,1,2,1,1,1,0,1,0,1,1,1,1,1,1,2,0,1,0
2025-10-24 15:55:32.070,2,0,1,9,1,0,1,1,1,1,2,1,1,1,1,1,2,0,1,1,1,1,1,1,1,1,2,0,2,1,1,0
2025-10-24 15:55:33.092,1,0,1,8,2,1,0,1,1,0,0,1,1,1,0,1,1,0,1,1,1,0,1,1,1,0,1,0,0,1,0,0
2025-10-24 15:55:34.051,2,1,1,9,2,1,0,1,1,1,2,0,0,1,1,1,1,2,1,0,0,1,1,1,1,1,1,1,2,1,1,1
2025-10-24 15:55:35.073,2,1,0,8,2,0,1,1,1,1,1,1,0,1,0,2,1,1,0,1,1,1,1,1,1,1,1,1,0,1,1,1
2025-10-24 15:55:36.095,1,0,0,9,2,1,2,1,1,1,0,1,1,0,1,1,1,0,0,1,1,1,1,1,1,1,1,1,0,1,0,0
2025-10-24 15:55:37.053,1,0,0,7,1,2,1,1,0,0,1,1,0,1,0,1,1,1,0,1,0,2,1,1,1,0,2,1,1,0,1,1
2025-10-24 15:55:38.074,1,0,0,8,2,1,2,1,1,1,0,1,1,0,1,1,1,0,0,1,1,1,1,1,1,1,1,1,0,1,0,0
2025-10-24 15:55:39.096,2,0,0,8,1,2,1,1,1,0,1,1,0,1,0,1,1,0,0,0,1,1,0,1,1,0,1,1,1,0,1,0
2025-10-24 15:55:40.054,2,1,0,8,1,1,2,1,1,1,1,1,1,1,1,2,1,1,0,1,0,1,1,1,1,1,1,1,2,1,1,1
2025-10-24 15:55:41.076,1,0,0,8,3,1,2,1,1,0,0,0,1,1,1,0,1,1,0,1,1,1,0,1,1,0,1,1,1,1,0,0
2025-10-24 15:55:42.097,1,0,0,8,1,0,1,1,1,1,1,1,1,1,1,1,1,0,0,1,1,0,1,0,1,0,1,1,1,1,1,0
2025-10-24 15:55:43.055,1,1,0,8,2,2,2,1,1,1,1,0,1,0,0,1,1,1,0,1,1,1,1,1,1,1,1,0,1,0,1,1
2025-10-24 15:55:44.077,1,0,0,7,1,1,2,0,1,1,1,0,0,0,0,0,1,1,0,1,1,1,0,0,1,1,1,1,1,1,0,0
2025-10-24 15:55:45.099,1,0,0,8,1,0,1,0,1,0,1,0,1,1,1,1,1,0,0,0,1,0,1,0,1,0,1,0,1,1,1,0
2025-10-24 15:55:46.057,1,1,0,8,2,2,2,1,1,1,1,1,0,1,0,1,1,1,0,1,0,1,1,1,1,1,0,1,1,0,1,1
2025-10-24 15:55:47.078,1,0,0,8,2,1,1,0,1,0,1,0,0,1,0,0,1,1,0,1,1,1,0,0,1,0,1,1,0,1,1,0
2025-10-24 15:55:48.100,1,1,0,7,1,1,2,0,1,1,1,1,1,1,0,1,1,1,0,1,1,1,0,0,1,1,1,1,1,1,0,0
2025-10-24 15:55:49.058,1,1,0,7,2,2,2,1,1,1,1,1,1,1,0,1,1,1,1,1,1,1,1,1,1,1,1,1,0,1,1,1
2025-10-24 15:55:50.080,1,0,0,8,1,2,2,1,1,0,2,1,0,1,0,0,1,1,0,0,1,1,1,1,1,0,0,1,1,0,1,1
2025-10-24 15:55:51.102,2,0,1,8,1,1,1,1,1,1,1,1,1,1,1,1,1,1,1,1,1,1,1,0,1,1,1,1,1,1,1,1
2025-10-24 15:55:52.061,1,0,0,9,1,1,2,1,1,0,2,1,0,1,0,1,1,1,0,1,1,1,1,1,1,0,0,1,1,1,1,0
2025-10-24 15:55:53.083,1,0,0,8,1,1,1,1,0,1,1,1,1,1,0,1,1,1,0,1,1,1,1,0,1,1,1,1,1,1,1,1
2025-10-24 15:55:54.104,2,0,0,8,1,1,1,1,1,0,1,1,1,1,0,1,1,0,1,1,1,1,0,1,1,0,0,1,1,1,0,0
2025-10-24 15:55:55.063,1,1,0,7,1,1,1,1,1,1,1,1,1,1,1,2,1,1,0,1,1,1,1,1,1,1,1,1,1,1,1,1
2025-10-24 15:55:56.084,1,0,0,7,1,2,1,0,1,1,0,1,1,1,1,1,1,0,0,1,1,1,1,0,1,1,0,1,1,0,0,0
2025-10-24 15:55:57.106,2,0,0,8,1,1,1,1,1,0,0,0,1,1,0,1,1,0,0,0,1,1,1,1,1,0,0,0,1,0,0,0
2025-10-24 15:55:58.064,2,0,1,7,1,1,1,0,1,0,1,1,1,1,1,1,1,0,1,0,1,0,1,0,1,0,1,1,1,0,1,0
2025-10-24 15:55:59.086,2,0,0,8,1,1,1,1,1,0,1,1,1,1,0,1,1,0,1,1,1,1,0,1,1,0,0,1,1,1,0,0
2025-10-24 15:56:00.107,1,0,0,8,1,0,1,1,1,0,0,1,1,1,0,1,1,1,0,0,1,0,1,1,1,0,0,1,1,1,0,1
2025-10-24 15:56:01.066,1,0,1,7,1,1,2,0,0,0,1,1,1,1,1,1,1,0,1,1,1,1,1,0,1,0,1,1,1,0,1,0
2025-10-24 15:56:02.087,1,0,1,7,1,1,1,1,0,0,1,1,1,1,0,1,1,0,0,1,1,1,1,1,0,0,1,1,1,1,0,0
2025-10-24 15:56:03.109,2,0,0,8,1,1,1,1,1,0,0,0,1,0,0,0,1,1,0,0,1,1,1,1,1,0,0,0,1,0,0,1
2025-10-24 15:56:04.068,2,0,1,8,1,1,1,1,1,1,1,1,1,0,1,1,1,1,1,0,1,1,1,1,1,1,1,1,1,0,1,1
2025-10-24 15:56:05.089,2,1,0,8,1,1,1,0,1,0,0,0,1,1,1,2,1,1,0,1,1,1,1,0,1,0,0,0,1,1,0,1
2025-10-24 15:56:06.047,2,0,0,8,1,2,2,0,1,1,2,1,0,0,0,0,1,1,0,1,1,1,1,0,1,1,0,1,1,1,1,1
2025-10-24 15:56:07.069,1,0,0,8,1,1,2,1,1,0,1,1,1,1,1,1,1,0,0,1,1,1,2,1,1,0,1,1,1,1,1,0
2025-10-24 15:56:08.091,1,0,1,8,1,1,1,0,0,1,1,1,1,1,1,1,1,0,1,1,1,1,1,0,1,1,1,1,1,0,1,0
2025-10-24 15:56:09.049,2,0,0,8,2,1,2,1,1,1,1,1,1,0,1,1,1,0,1,1,1,1,1,1,1,1,1,1,0,1,0,0
2025-10-24 15:56:10.071,1,0,0,8,1,2,2,0,1,0,1,1,0,1,0,0,1,1,0,0,1,1,0,0,1,0,1,1,1,0,0,1
2025-10-24 15:56:11.093,2,1,0,8,1,1,1,1,1,1,1,1,1,1,1,1,1,1,0,1,1,0,1,1,1,1,1,1,1,1,1,1
2025-10-24 15:56:12.051,2,0,0,8,2,1,2,1,1,1,0,0,1,0,1,1,1,0,0,1,1,1,1,1,1,1,1,1,1,1,0,0
2025-10-24 15:56:13.072,1,0,0,7,1,0,2,0,1,0,1,1,0,1,0,1,1,1,0,0,1,0,0,0,1,0,1,1,1,0,0,1
2025-10-24 15:56:14.094,1,1,0,7,1,1,1,1,1,1,1,1,1,0,1,2,1,1,0,0,1,0,1,1,1,1,1,1,1,1,1,1
2025-10-24 15:56:15.074,1,0,0,8,1,2,1,0,1,0,1,1,0,1,0,0,1,1,0,0,1,1,0,0,1,0,1,1,1,0,1,1
2025-10-24 15:56:16.095,1,0,0,8,1,1,1,0,1,1,1,1,1,1,0,1,1,0,1,0,1,0,1,0,1,1,1,1,1,1,1,0
2025-10-24 15:56:17.054,1,1,0,7,2,2,2,1,1,1,1,0,0,0,0,1,1,1,0,1,1,1,1,1,1,0,1,0,0,1,0,1
2025-10-24 15:56:18.075,1,0,0,7,1,1,1,0,1,1,1,0,0,0,0,0,1,1,0,1,1,1,0,0,1,1,1,1,1,1,1,0
2025-10-24 15:56:19.097,1,0,1,8,1,1,2,0,1,1,1,1,1,0,1,1,1,0,1,1,1,1,1,0,1,1,1,1,1,1,1,0
2025-10-24 15:56:20.056,1,1,0,8,2,1,2,1,1,1,1,1,0,1,0,2,1,1,0,1,0,1,1,1,1,1,2,1,0,0,0,1
2025-10-24 15:56:21.077,2,0,0,7,2,1,1,1,1,1,1,0,0,0,0,0,1,1,0,1,1,1,0,1,1,1,1,1,0,1,1,0
2025-10-24 15:56:22.099,1,1,0,7,1,1,1,1,1,1,1,1,1,1,1,2,1,1,0,1,1,0,1,1,1,1,1,1,1,2,1,1
2025-10-24 15:56:23.057,1,0,0,8,2,1,2,1,1,1,0,1,1,0,1,1,1,0,0,1,1,1,1,1,1,1,1,1,0,1,0,0
2025-10-24 15:56:24.079,2,1,0,7,1,1,2,0,1,1,1,1,0,1,0,1,1,1,0,1,1,1,0,0,1,1,1,1,1,2,0,0
2025-10-24 15:56:25.101,1,1,0,7,1,0,1,0,1,1,0,1,1,1,1,1,1,1,0,1,1,0,1,0,1,1,0,1,1,1,0,1
2025-10-24 15:56:26.059,1,0,0,8,1,2,2,0,1,0,1,1,0,0,0,1,1,0,0,0,1,1,1,0,1,0,1,1,1,0,0,1
2025-10-24 15:56:27.081,2,1,0,7,1,1,2,0,1,1,0,0,1,1,1,1,1,1,0,1,1,1,1,0,1,1,0,0,1,1,0,0
2025-10-24 15:56:28.103,2,0,0,9,1,0,1,1,1,0,0,1,1,1,0,1,1,1,0,0,1,0,1,1,1,0,0,1,1,1,0,1
2025-10-24 15:56:29.061,1,0,0,7,1,1,1,1,0,0,1,1,1,1,0,1,1,0,0,1,1,1,1,1,0,0,1,1,1,1,0,0
2025-10-24 15:56:30.083,1,0,2,9,1,0,0,1,1,0,1,1,0,1,1,1,1,1,1,0,1,0,0,1,1,0,1,1,0,1,1,1
2025-10-24 15:56:31.105,2,1,2,9,0,0,0,1,1,0,0,1,0,1,1,1,1,1,0,1,0,0,1,1,1,0,1,1,1,1,0,0
2025-10-24 15:56:32.062,2,1,2,8,0,0,0,1,1,1,1,0,0,0,0,0,1,1,1,1,0,0,0,1,1,1,1,0,0,1,2,0
2025-10-24 15:56:33.085,2,1,1,10,0,0,1,1,0,0,1,1,1,0,1,2,1,1,1,1,1,0,1,1,1,0,1,1,1,1,1,0
2025-10-24 15:56:34.106,2,1,1,11,1,0,1,1,1,1,1,1,1,1,1,1,1,1,1,1,1,0,1,1,1,1,1,1,1,1,1,0
2025-10-24 15:56:35.065,2,2,1,9,1,0,1,1,1,1,1,1,1,1,0,1,1,1,0,0,1,0,1,2,1,1,1,1,0,0,1,0
2025-10-24 15:56:36.087,2,1,1,10,2,0,1,1,2,1,2,0,1,0,1,2,1,1,1,0,1,0,1,1,0,1,1,1,1,2,1,1
2025-10-24 15:56:37.109,1,0,1,8,2,2,1,1,1,0,1,1,1,1,1,0,1,0,1,1,1,0,1,1,1,0,1,0,1,1,1,0
2025-10-24 15:56:38.067,1,1,1,9,1,2,1,1,1,1,1,1,1,1,1,1,1,1,1,1,1,1,1,2,1,1,1,1,2,1,1,1
2025-10-24 15:56:39.089,1,1,0,7,2,2,2,1,1,1,1,1,0,1,0,1,1,1,0,1,1,1,1,1,1,1,1,1,1,1,1,1
2025-10-24 15:56:40.048,1,0,0,7,2,2,1,1,1,0,1,0,0,1,0,1,1,1,0,1,0,1,1,1,1,0,1,1,0,1,0,1
2025-10-24 15:56:41.069,1,0,0,9,1,1,2,1,1,0,1,1,0,1,1,1,1,0,0,1,1,1,1,1,1,0,0,1,1,1,1,0
2025-10-24 15:56:42.091,2,0,0,7,1,0,2,0,1,0,0,0,1,1,1,1,1,0,0,1,1,0,1,0,1,0,0,0,1,0,0,0
2025-10-24 15:56:43.049,1,0,0,8,1,1,1,0,1,0,1,0,1,1,0,1,1,0,0,0,1,1,0,0,1,0,1,0,1,1,1,0
2025-10-24 15:56:44.070,2,0,0,7,1,1,1,1,1,0,1,1,1,1,0,1,1,0,1,1,1,1,0,1,1,0,0,1,1,1,0,0
2025-10-24 15:56:45.092,1,1,1,9,1,1,0,1,1,0,1,0,0,1,0,1,1,1,0,0,1,1,0,1,1,0,1,0,0,1,1,0
2025-10-24 15:56:46.051,2,1,0,9,0,0,0,1,1,1,0,1,0,0,0,2,1,1,0,1,0,0,0,1,1,1,0,1,0,1,0,0
2025-10-24 15:56:47.072,2,1,2,9,0,0,0,1,1,1,0,1,0,0,1,0,1,1,0,1,0,0,1,1,1,1,1,1,0,1,1,0
2025-10-24 15:56:48.094,2,1,1,10,0,0,1,1,0,0,1,1,1,0,1,2,1,1,1,1,1,0,1,1,1,0,1,1,1,1,1,0
2025-10-24 15:56:49.052,2,2,2,10,0,0,0,0,0,1,1,0,1,0,1,1,1,1,1,0,0,0,0,0,0,1,1,0,0,1,1,0
2025-10-24 15:56:50.074,2,1,3,10,1,1,2,1,0,0,1,1,1,1,1,1,1,0,1,2,1,1,0,1,1,0,1,1,0,1,1,1
2025-10-24 15:56:51.096,2,1,1,9,1,0,1,1,1,1,0,1,1,0,1,2,1,1,1,0,1,1,1,1,1,1,0,1,1,1,1,1
2025-10-24 15:56:52.055,2,1,1,10,1,1,1,1,1,1,1,1,1,1,1,2,1,1,1,1,1,1,1,1,1,1,1,1,2,1,1,0
2025-10-24 15:56:53.076,1,1,1,9,2,1,0,2,1,1,1,0,0,1,1,1,1,1,1,1,0,1,1,1,1,1,1,1,2,1,1,0
2025-10-24 15:56:54.099,1,0,0,7,1,1,1,1,0,0,1,1,0,1,0,1,1,1,0,1,0,0,1,1,1,0,2,1,1,1,1,1
2025-10-24 15:56:55.057,2,1,1,9,1,1,0,1,0,1,1,1,1,1,0,1,1,1,1,1,1,1,0,1,1,1,1,1,1,1,0,0
2025-10-24 15:56:56.079,2,1,0,8,2,1,2,1,1,1,1,1,0,1,0,2,1,1,0,1,1,1,1,1,1,1,0,1,0,1,0,1
2025-10-24 15:56:57.101,1,0,1,9,1,1,1,1,1,0,1,0,1,1,1,1,1,0,1,0,1,1,1,1,1,0,1,0,1,1,1,0
2025-10-24 15:56:58.059,1,0,0,8,3,1,2,0,1,0,0,0,1,1,1,0,1,1,0,0,1,1,0,0,1,0,1,1,1,1,0,0
2025-10-24 15:56:59.081,2,0,0,8,1,1,1,0,1,0,1,0,1,1,1,0,1,0,0,1,1,1,1,0,1,0,1,1,1,1,1,0
2025-10-24 15:57:00.103,1,1,0,9,1,2,2,0,1,0,0,0,1,1,1,1,1,1,0,0,1,1,1,0,1,0,0,0,1,1,0,1
2025-10-24 15:57:01.061,1,0,0,8,1,0,1,1,1,1,1,0,1,1,1,1,1,0,0,0,1,0,1,0,1,0,1,0,1,1,1,0
2025-10-24 15:57:02.083,1,1,1,8,1,1,2,0,1,1,1,0,1,0,1,2,1,1,1,2,1,1,1,0,1,1,1,1,1,1,1,1
2025-10-24 15:57:03.105,1,0,0,9,1,0,1,0,1,0,0,1,1,0,0,0,1,1,0,1,1,0,1,0,1,0,0,1,1,0,0,0
2025-10-24 15:57:04.063,2,0,0,7,1,0,2,0,1,0,0,0,1,1,1,1,1,0,0,1,1,0,1,0,1,0,0,0,1,0,0,0
2025-10-24 15:57:05.084,1,1,0,8,1,1,1,1,0,0,1,1,0,0,1,1,1,1,0,1,1,1,1,1,1,0,1,0,0,1,1,1
2025-10-24 15:57:06.107,2,1,1,10,1,0,0,1,1,0,1,0,0,1,0,1,1,1,1,1,1,0,0,1,1,0,1,0,0,1,1,1
2025-10-24 15:57:07.065,1,0,0,8,1,1,1,0,0,0,1,1,1,1,1,1,1,0,0,1,1,1,1,0,0,0,1,0,1,0,1,0
2025-10-24 15:57:08.087,2,1,1,8,1,0,0,1,1,1,0,1,0,0,0,2,1,1,0,1,1,0,0,1,1,1,0,1,0,1,1,0
2025-10-24 15:57:09.045,2,0,0,8,1,1,1,0,1,1,1,1,1,1,0,1,1,0,0,1,1,1,0,0,1,1,0,1,1,0,1,0
2025-10-24 15:57:10.067,1,0,1,9,0,0,0,1,1,0,0,1,0,1,1,1,1,0,1,0,0,0,0,1,1,0,0,1,0,1,1,0
2025-10-24 15:57:11.089,2,2,2,8,1,1,0,1,1,1,1,0,0,1,0,2,1,1,0,1,1,1,0,1,1,1,1,0,0,0,1,0
2025-10-24 15:57:12.047,2,0,0,9,0,0,1,0,0,1,0,1,0,0,0,1,1,1,0,0,0,0,1,0,1,1,0,1,0,0,0,0
2025-10-24 15:57:13.069,1,0,1,9,1,0,0,1,1,0,1,0,0,1,0,1,1,1,0,0,1,0,0,1,1,0,1,0,0,1,1,1
2025-10-24 15:57:14.091,2,1,2,10,0,0,0,1,1,1,1,0,0,1,1,1,1,1,0,1,0,0,0,1,1,1,1,0,0,1,1,0
2025-10-24 15:57:15.049,2,1,1,8,0,0,0,1,1,1,0,1,0,0,0,2,1,1,0,1,0,0,0,1,1,1,0,1,0,1,1,0
2025-10-24 15:57:16.071,2,2,2,8,1,1,0,1,1,1,1,0,0,0,1,1,1,1,0,0,1,1,0,1,1,1,1,0,0,1,1,0
2025-10-24 15:57:17.093,2,2,1,9,1,0,0,1,1,1,0,1,0,1,1,1,1,2,0,1,1,0,1,1,1,1,1,1,0,1,1,0
2025-10-24 15:57:18.052,1,1,2,8,1,1,0,1,1,1,1,0,0,1,1,2,1,1,1,0,1,1,0,1,1,1,1,0,0,1,1,1
2025-10-24 15:57:19.073,2,1,1,8,0,0,0,0,0,1,0,1,0,1,1,1,1,2,0,1,0,0,1,0,0,1,1,1,0,1,1,0
2025-10-24 15:57:20.095,2,2,1,10,0,0,0,1,0,0,1,1,1,0,1,1,1,0,1,1,0,0,0,1,0,0,1,1,1,2,1,0
2025-10-24 15:57:21.053,2,1,2,9,0,0,0,1,1,1,1,0,0,1,1,0,1,1,0,1,0,0,0,1,1,1,1,0,0,1,1,1
2025-10-24 15:57:22.075,2,1,2,9,0,0,0,0,0,0,0,1,0,1,1,1,1,1,0,0,0,0,1,0,0,0,1,1,1,1,0,0
2025-10-24 15:57:23.054,2,2,2,9,0,0,0,2,1,1,1,0,0,1,1,1,1,0,0,1,0,0,0,1,1,1,1,0,0,0,1,0
2025-10-24 15:57:24.076,2,1,2,10,1,1,0,1,1,0,0,0,0,1,1,1,1,1,0,0,1,1,1,1,1,0,1,0,0,1,1,0
2025-10-24 15:57:25.097,2,1,1,10,0,1,1,0,0,1,1,1,1,0,0,2,1,1,0,1,1,1,1,0,0,1,1,1,1,1,1,0
2025-10-24 15:57:26.055,2,1,1,8,0,0,0,1,1,1,1,0,0,0,1,0,1,1,1,1,0,0,0,1,1,1,1,0,0,1,1,0
2025-10-24 15:57:27.077,2,1,2,10,0,0,0,1,0,0,0,1,0,1,1,1,1,1,0,0,0,0,1,1,0,0,1,1,1,1,0,0
2025-10-24 15:57:28.099,2,1,1,10,0,0,1,1,0,0,1,1,1,0,0,2,1,1,1,0,1,0,1,1,0,0,1,1,1,1,1,0
2025-10-24 15:57:29.057,2,2,2,9,0,0,0,2,1,1,1,0,0,1,1,1,1,1,0,1,0,0,0,1,1,1,1,0,0,1,1,1
2025-10-24 15:57:30.079,2,1,2,10,0,0,0,0,0,0,0,1,0,1,1,1,1,1,0,0,0,0,1,0,0,0,1,1,1,1,1,0
2025-10-24 15:57:31.101,2,1,1,10,0,0,1,1,0,0,1,1,1,0,0,2,1,1,1,0,1,0,1,1,0,0,1,1,1,1,1,0
2025-10-24 15:57:32.059,2,2,2,9,0,0,0,1,1,1,1,0,0,1,1,1,1,1,0,1,0,0,0,1,1,1,1,0,0,0,1,1
2025-10-24 15:57:33.080,2,1,2,9,0,0,0,1,1,0,0,1,0,1,1,1,1,1,0,1,0,0,1,1,1,0,1,1,1,1,0,0
2025-10-24 15:57:34.102,2,1,1,9,0,1,0,1,0,0,1,1,1,0,0,1,0,1,1,0,1,1,0,1,0,0,1,0,1,1,2,0
2025-10-24 15:57:35.060,2,1,2,9,0,0,0,1,1,1,1,0,0,1,1,0,1,1,1,1,0,0,0,1,1,1,1,0,0,1,1,1
2025-10-24 15:57:36.081,2,2,1,9,0,0,0,1,1,1,0,0,0,1,1,0,1,0,0,0,0,0,1,0,1,0,1,0,1,1,1,0
2025-10-24 15:57:37.103,2,1,1,10,0,0,1,1,0,0,1,1,1,0,0,2,0,1,0,0,1,0,1,1,0,0,1,1,1,1,1,0
2025-10-24 15:57:38.062,2,2,2,8,0,0,0,1,1,1,0,0,0,0,0,1,1,0,0,1,0,0,0,1,1,1,1,0,0,1,1,0
2025-10-24 15:57:39.083,2,2,1,10,0,0,0,1,0,0,1,1,1,0,1,1,1,1,1,1,0,0,0,1,0,0,1,1,0,1,1,0
2025-10-24 15:57:40.105,2,2,2,10,1,0,2,0,1,1,1,0,1,1,1,1,1,1,1,0,0,0,1,1,1,1,1,0,0,1,1,0
2025-10-24 15:57:41.063,2,1,2,9,0,0,0,0,0,0,1,1,0,1,1,1,1,0,1,1,0,0,0,0,0,0,1,1,1,1,1,0
2025-10-24 15:57:42.085,2,1,2,10,1,0,2,0,0,1,1,0,0,0,1,2,1,1,1,0,0,0,1,0,1,1,1,0,1,1,1,1
2025-10-24 15:57:43.106,2,1,1,10,1,0,1,0,1,0,1,1,1,1,1,1,1,1,1,1,1,0,1,1,1,1,1,1,1,2,1,0
2025-10-24 15:57:44.064,2,1,2,10,1,0,2,0,0,1,1,0,1,1,1,2,1,1,1,0,0,0,1,1,1,1,1,0,0,1,1,0
2025-10-24 15:57:45.086,2,1,1,10,2,0,1,1,1,1,1,1,1,1,1,1,1,1,1,1,1,0,1,1,1,1,1,1,0,1,1,0
2025-10-24 15:57:46.045,2,2,2,10,1,0,2,0,1,0,1,0,0,1,1,2,1,1,1,0,0,0,1,1,2,0,1,0,1,1,1,0
2025-10-24 15:57:47.066,2,1,1,10,1,2,1,1,2,1,1,1,1,1,1,2,0,1,1,1,1,1,1,1,0,1,1,0,1,1,1,0
2025-10-24 15:57:48.088,2,0,1,9,1,0,1,1,1,1,2,1,1,1,1,0,2,1,1,2,1,1,1,1,1,1,1,1,1,0,1,1
2025-10-24 15:57:49.047,2,1,1,10,1,2,1,1,1,1,0,0,1,1,1,2,1,1,1,0,1,1,1,1,1,1,0,1,1,1,1,0
2025-10-24 15:57:50.069,1,1,1,8,2,1,0,1,1,1,1,1,1,1,1,1,1,1,1,1,1,1,1,1,1,1,1,1,1,1,1,1
2025-10-24 15:57:51.091,1,0,0,7,2,2,1,1,1,0,1,0,0,1,1,1,1,1,0,1,0,1,1,1,1,0,2,1,0,1,0,1
2025-10-24 15:57:52.050,1,1,1,9,2,0,0,1,1,1,1,1,1,1,0,1,1,1,1,1,1,0,1,1,1,1,1,1,1,1,0,0
2025-10-24 15:57:53.071,1,1,0,8,2,1,1,1,1,1,1,1,0,1,0,2,1,1,0,1,0,1,1,1,1,1,2,1,1,0,1,1
2025-10-24 15:57:54.093,1,1,0,8,2,2,2,1,1,1,2,1,1,0,0,1,1,1,0,0,1,1,1,1,1,1,0,1,2,1,1,1
2025-10-24 15:57:55.051,1,0,0,8,1,1,1,1,1,0,1,1,0,1,0,1,1,0,0,1,0,1,1,1,1,0,2,1,1,1,1,0
2025-10-24 15:57:56.073,2,0,0,8,1,1,1,0,1,1,1,1,0,0,0,0,1,0,0,1,1,1,0,0,1,1,1,1,1,1,1,0
2025-10-24 15:57:57.094,2,1,1,8,1,1,1,1,1,1,1,1,1,0,0,1,1,1,0,0,1,0,1,1,1,1,1,1,1,1,1,1
2025-10-24 15:57:58.053,2,0,0,8,2,1,2,1,1,1,1,1,0,1,0,1,1,0,1,1,1,1,1,1,1,1,1,1,0,0,0,0
2025-10-24 15:57:59.075,1,0,1,8,1,1,1,0,1,1,1,1,1,0,1,1,1,0,1,1,1,1,1,0,1,1,1,1,1,0,1,0
2025-10-24 15:58:00.097,2,1,1,7,1,1,2,0,1,1,1,0,1,1,1,1,1,1,1,0,1,1,1,0,1,1,1,0,1,1,1,0
2025-10-24 15:58:01.055,1,0,1,8,1,2,2,0,1,0,1,1,0,1,1,0,1,0,1,1,1,1,1,0,1,0,1,1,1,2,1,1
2025-10-24 15:58:02.077,0,0,1,7,1,1,2,0,0,0,1,1,1,1,1,1,1,0,1,1,1,1,1,0,1,0,1,1,1,1,1,0
2025-10-24 15:58:03.099,1,0,0,8,1,1,1,1,1,0,1,0,1,1,0,0,1,0,1,0,1,1,0,1,1,0,0,0,1,1,0,0
2025-10-24 15:58:04.057,1,1,0,8,1,1,1,1,1,1,1,1,1,0,1,1,1,1,0,0,1,0,1,1,1,1,1,1,1,1,1,1
2025-10-24 15:58:05.079,2,1,0,8,1,1,1,0,1,0,0,1,1,1,1,1,1,2,0,1,1,1,1,0,1,0,0,1,1,1,0,1
2025-10-24 15:58:06.101,2,0,0,8,1,1,1,1,0,0,0,0,1,1,0,1,1,0,0,1,1,1,1,1,1,0,0,0,1,0,0,0
2025-10-24 15:58:07.059,1,1,0,7,1,1,1,1,1,1,1,1,1,0,1,1,1,2,1,1,1,0,1,0,1,1,1,1,1,0,1,0
2025-10-24 15:58:08.081,1,0,0,8,1,1,1,0,1,1,1,1,1,1,0,1,1,0,1,1,1,1,0,0,1,1,0,1,1,1,0,0
2025-10-24 15:58:09.102,2,0,0,8,1,0,1,0,1,0,0,1,1,0,0,1,1,1,0,1,1,0,1,0,1,0,0,1,1,0,0,1
